Data from led6500K_USB4H112691__6__12-41-01-173.txt Node

Date: Tue Dec 17 12:41:01 CET 2024
User: Etudiants TP
Spectrometer: USB4H11269
Trigger mode: 4
Integration Time (sec): 1.000000E0
Scans to average: 1
Electric dark correction enabled: true
Nonlinearity correction enabled: false
Boxcar width: 0
XAxis mode: Wavelengths
Number of Pixels in Spectrum: 3648
>>>>>Begin Spectral Data<<<<<
286.377	-1684.11
286.631	-1684.11
286.884	-1684.11
287.138	-1690.26
287.391	-1690.26
287.644	-754.34
287.896	-674.46
288.149	742.73
288.401	568.65
288.653	-570.02
288.905	-469.67
289.157	793.93
289.409	361.81
289.661	-467.62
289.912	-793.25
290.163	480.59
290.414	781.64
290.665	-690.85
290.916	-625.31
291.166	677.2
291.417	1043.78
291.667	-613.03
291.917	-256.68
292.167	415.06
292.417	460.11
292.666	-826.01
292.916	-676.51
293.165	513.36
293.414	709.96
293.663	-1047.19
293.912	-762.53
294.16	757.07
294.408	789.83
294.657	-740
294.905	-469.67
295.153	681.29
295.4	552.27
295.648	-772.77
295.895	-737.95
296.143	202.07
296.39	726.35
296.637	-729.76
296.884	-744.1
297.13	601.42
297.377	785.74
297.623	-660.13
297.869	-293.54
298.115	779.59
298.361	705.87
298.606	-846.49
298.852	-703.14
299.097	499.02
299.342	1008.97
299.587	-443.04
299.832	-633.5
300.077	816.46
300.322	556.36
300.566	-768.67
300.81	-465.57
301.054	539.98
301.298	896.33
301.542	-178.86
301.785	-363.17
302.029	861.51
302.272	781.64
302.515	-866.97
302.758	-621.22
303.001	761.16
303.244	720.2
303.486	-506.53
303.729	-885.41
303.971	943.43
304.213	673.1
304.455	-883.36
304.696	-375.46
304.938	232.79
305.179	798.03
305.421	-473.76
305.662	-502.43
305.903	433.49
306.143	380.24
306.384	-471.72
306.625	-592.55
306.865	384.34
307.105	202.07
307.345	-535.2
307.585	-576.16
307.825	85.33
308.064	736.59
308.304	-617.12
308.543	-817.82
308.782	533.84
309.021	890.18
309.26	-404.13
309.499	-643.74
309.737	922.95
309.976	650.57
310.214	-813.73
310.452	-684.7
310.69	1131.84
310.928	298.32
311.165	-701.09
311.403	-613.03
311.64	881.99
311.878	746.83
312.115	-580.26
312.351	-477.86
312.588	437.58
312.825	959.81
313.061	-715.42
313.298	-35.5
313.534	320.85
313.77	746.83
314.006	-703.14
314.241	-637.6
314.477	742.73
314.713	1129.8
314.948	-578.21
315.183	238.93
315.418	894.28
315.653	597.32
315.888	-735.9
316.122	-461.48
316.357	378.19
316.591	853.32
316.825	-645.79
317.059	-658.08
317.293	1066.31
317.527	456.01
317.76	-744.1
317.994	-531.11
318.227	691.53
318.46	1049.93
318.693	-723.62
318.926	-553.63
319.159	163.15
319.391	582.99
319.624	-768.67
319.856	-549.54
320.088	769.35
320.321	701.77
320.552	-291.49
320.784	-613.03
321.016	828.74
321.247	-31.4
321.479	-348.84
321.71	-373.41
321.941	-72.36
322.172	1113.41
322.403	-760.48
322.633	-314.02
322.864	734.54
323.094	214.35
323.325	-76.46
323.555	-627.36
323.785	152.92
324.014	304.46
324.244	-531.11
324.474	-387.75
324.703	853.32
324.933	984.39
325.162	-449.19
325.391	-826.01
325.62	3.41
325.848	947.53
326.077	-555.68
326.306	-518.82
326.534	707.91
326.762	947.53
326.99	-555.68
327.218	-371.36
327.446	838.98
327.674	44.37
327.901	-592.55
328.129	-711.33
328.356	812.36
328.583	208.21
328.81	-670.37
329.037	-518.82
329.264	376.14
329.491	892.23
329.717	-469.67
329.944	-690.85
330.17	386.38
330.396	120.15
330.622	-649.89
330.848	-354.98
331.074	554.32
331.299	1496.38
331.525	-699.04
331.75	-625.31
331.975	937.29
332.201	142.68
332.426	-914.08
332.65	-740
332.875	-162.47
333.1	380.24
333.324	-653.98
333.549	-627.36
333.773	304.46
333.997	509.26
334.221	-613.03
334.445	-682.66
334.668	580.94
334.892	1045.83
335.116	-445.09
335.339	-641.7
335.562	-43.69
335.785	505.17
336.008	-400.04
336.231	-707.23
336.454	-109.22
336.676	910.66
336.899	-490.15
337.121	-441
337.343	66.9
337.566	558.41
337.788	-551.59
338.009	-752.29
338.231	17.75
338.453	523.6
338.674	3335.46
338.896	-504.48
339.117	-15.02
339.338	1033.54
339.559	-727.71
339.78	-629.41
340.001	99.67
340.222	806.22
340.442	-635.55
340.663	-371.36
340.883	808.27
341.103	341.33
341.323	-553.63
341.543	-455.33
341.763	726.35
341.983	314.7
342.202	-694.94
342.422	-686.75
342.641	1086.79
342.861	451.92
343.08	-252.58
343.299	-793.25
343.518	646.48
343.736	578.89
343.955	-651.94
344.174	-715.42
344.392	888.14
344.61	165.2
344.829	-850.59
345.047	-561.83
345.265	603.47
345.483	857.42
345.7	-692.9
345.918	-260.77
346.136	77.14
346.353	836.94
346.57	-746.14
346.788	-758.43
347.005	302.42
347.222	38.23
347.438	-182.95
347.655	-637.6
347.872	161.11
348.088	1019.21
348.305	-408.23
348.521	-576.16
348.737	175.44
348.953	877.9
349.169	-170.66
349.385	-492.2
349.601	406.86
349.817	-62.12
350.032	-211.62
350.248	-273.06
350.463	1191.24
350.678	-266.92
350.893	-596.64
351.108	-805.53
351.323	208.21
351.538	822.6
351.753	-625.31
351.967	-592.55
352.182	830.79
352.396	128.34
352.61	-789.15
352.824	-553.63
353.038	558.41
353.252	812.36
353.466	-447.14
353.68	-651.94
353.894	451.92
354.107	144.72
354.32	-391.84
354.534	-592.55
354.747	664.91
354.96	-88.75
355.173	-430.76
355.386	-826.01
355.599	466.25
355.811	197.97
356.024	-748.19
356.236	-488.1
356.449	300.37
356.661	283.99
356.873	-780.96
357.085	-879.26
357.297	691.53
357.509	544.08
357.721	-580.26
357.933	-621.22
358.144	370
358.356	191.83
358.567	-459.43
358.778	-723.62
358.989	865.61
359.2	154.96
359.411	-463.52
359.622	-369.32
359.833	527.69
360.044	335.18
360.254	-553.63
360.465	-692.9
360.675	478.54
360.885	429.39
361.096	-813.73
361.306	-486.05
361.516	185.68
361.726	415.06
361.935	-940.7
362.145	-563.87
362.355	482.64
362.564	453.97
362.774	-795.29
362.983	-883.36
363.192	863.56
363.401	210.26
363.61	-717.47
363.819	-320.17
364.028	410.96
364.237	853.32
364.445	-588.45
364.654	-400.04
364.862	380.24
365.071	134.48
365.279	-432.8
365.487	-725.66
365.695	521.55
365.903	347.47
366.111	-692.9
366.319	-582.31
366.527	580.94
366.734	361.81
366.942	-404.13
367.149	-703.14
367.357	-473.76
367.564	959.81
367.771	-479.91
367.978	-735.9
368.185	238.93
368.392	370
368.599	-316.07
368.806	-610.98
369.013	-72.36
369.219	529.74
369.426	-834.21
369.632	-256.68
369.838	1221.95
370.044	699.72
370.251	-563.87
370.457	-559.78
370.663	855.37
370.868	451.92
371.074	-535.2
371.28	-735.9
371.485	-176.81
371.691	701.77
371.896	-637.6
372.102	-776.86
372.307	996.68
372.512	949.57
372.717	-645.79
372.922	-215.72
373.127	71
373.332	419.15
373.537	-541.35
373.741	-572.07
373.946	544.08
374.151	322.9
374.355	-838.3
374.559	-459.43
374.764	200.02
374.968	-367.27
375.172	-699.04
375.376	-297.64
375.58	441.68
375.784	99.67
375.987	-807.58
376.191	-651.94
376.395	165.2
376.598	173.39
376.802	-740
377.005	-357.03
377.208	142.68
377.412	91.48
377.615	-840.35
377.818	-633.5
378.021	261.46
378.224	-86.7
378.426	-592.55
378.629	-875.17
378.832	730.44
379.034	478.54
379.237	-860.83
379.439	-805.53
379.642	660.81
379.844	439.63
380.046	-866.97
380.248	-647.84
380.45	-150.18
380.652	-211.62
380.854	-606.88
381.056	-727.71
381.258	236.88
381.459	447.82
381.661	-770.72
381.862	-350.89
382.064	-152.23
382.265	79.19
382.467	-768.67
382.668	-662.18
382.869	824.65
383.07	345.42
383.271	-539.3
383.472	-680.61
383.673	666.96
383.874	402.77
384.074	-512.67
384.275	-811.68
384.476	492.88
384.676	1082.69
384.876	-817.82
385.077	-631.46
385.277	726.35
385.477	781.64
385.677	-793.25
385.878	-582.31
386.078	308.56
386.278	230.74
386.477	-334.5
386.677	-338.6
386.877	468.3
387.077	712.01
387.276	-486.05
387.476	-477.86
387.675	423.25
387.875	810.31
388.074	-727.71
388.273	-506.53
388.472	798.03
388.671	-309.93
388.87	-692.9
389.069	-154.28
389.268	-244.39
389.467	17.75
389.666	-756.38
389.865	-246.44
390.063	568.65
390.262	683.34
390.461	-637.6
390.659	-750.24
390.857	593.23
391.056	691.53
391.254	-715.42
391.452	-621.22
391.65	818.5
391.849	408.91
392.047	-387.75
392.245	-318.12
392.442	314.7
392.64	443.73
392.838	-387.75
393.036	-531.11
393.233	292.18
393.431	189.78
393.629	-883.36
393.826	-594.59
394.023	144.72
394.221	-127.66
394.418	-412.32
394.615	-279.21
394.812	-133.8
395.01	798.03
395.207	-547.49
395.404	-762.53
395.601	945.48
395.797	357.71
395.994	-744.1
396.191	-551.59
396.388	197.97
396.584	623.95
396.781	-408.23
396.977	-47.79
397.174	550.22
397.37	-96.94
397.567	-406.18
397.763	-725.66
397.959	308.56
398.155	394.58
398.352	-547.49
398.548	-295.59
398.744	482.64
398.94	300.37
399.136	-846.49
399.331	-359.08
399.527	394.58
399.723	488.78
399.919	-449.19
400.114	-543.39
400.31	300.37
400.505	400.72
400.701	-535.2
400.896	-553.63
401.092	111.96
401.287	345.42
401.482	-799.39
401.678	-416.42
401.873	427.34
402.068	599.37
402.263	-522.91
402.458	-486.05
402.653	116.05
402.848	521.55
403.043	-508.58
403.237	-756.38
403.432	152.92
403.627	-170.66
403.822	-801.44
404.016	-608.93
404.211	77.14
404.405	593.23
404.6	-283.3
404.794	-236.2
404.989	427.34
405.183	175.44
405.377	-234.15
405.571	-191.14
405.766	445.77
405.96	337.23
406.154	-690.85
406.348	-432.8
406.542	513.36
406.736	525.65
406.93	-731.81
407.124	-428.71
407.318	265.55
407.511	275.79
407.705	-393.89
407.899	-592.55
408.092	472.4
408.286	443.73
408.48	-699.04
408.673	-635.55
408.867	109.91
409.06	314.7
409.253	-408.23
409.447	-457.38
409.64	650.57
409.833	511.31
410.026	-488.1
410.22	-430.76
410.413	701.77
410.606	370
410.799	-709.28
410.992	-563.87
411.185	349.52
411.378	959.81
411.571	-465.57
411.764	-441
411.956	615.76
412.149	345.42
412.342	-250.53
412.534	-457.38
412.727	582.99
412.92	378.19
413.112	-449.19
413.305	-203.43
413.497	724.3
413.69	554.32
413.882	-457.38
414.075	-228.01
414.267	431.44
414.459	324.94
414.652	-653.98
414.844	-551.59
415.036	550.22
415.228	787.79
415.42	-182.95
415.612	-504.48
415.804	951.62
415.997	435.53
416.188	-244.39
416.38	-309.93
416.572	171.35
416.764	609.61
416.956	-527.01
417.148	-570.02
417.34	251.22
417.531	27.99
417.723	-537.25
417.915	-426.66
418.107	95.57
418.298	503.12
418.49	-406.18
418.681	-289.45
418.873	910.66
419.064	398.67
419.256	-377.51
419.447	-496.29
419.639	519.5
419.83	836.94
420.021	-277.16
420.213	-492.2
420.404	417.1
420.595	554.32
420.786	-322.21
420.978	-275.11
421.169	628.04
421.36	329.04
421.551	-471.72
421.742	-424.61
421.933	986.44
422.124	669
422.315	-283.3
422.506	-393.89
422.697	691.53
422.888	341.33
423.079	3.41
423.27	-445.09
423.461	357.71
423.652	204.11
423.842	-506.53
424.033	-381.6
424.224	685.39
424.415	1082.69
424.605	-279.21
424.796	-395.94
424.987	669
425.177	535.89
425.368	-645.79
425.558	-518.82
425.749	363.86
425.939	310.61
426.13	21.85
426.32	-223.91
426.511	386.38
426.701	312.66
426.892	-410.28
427.082	-375.46
427.272	179.54
427.463	523.6
427.653	-203.43
427.843	-236.2
428.034	1080.64
428.224	689.48
428.414	-408.23
428.604	-223.91
428.795	621.9
428.985	785.74
429.175	25.94
429.365	-45.74
429.555	644.43
429.745	587.08
429.935	-264.87
430.126	-8.87
430.316	861.51
430.506	847.18
430.696	-174.76
430.886	-55.98
431.076	791.88
431.266	517.45
431.456	128.34
431.645	-199.34
431.835	609.61
432.025	783.69
432.215	-381.6
432.405	25.94
432.595	679.24
432.785	709.96
432.975	-242.34
433.164	-445.09
433.354	474.45
433.544	785.74
433.734	-273.06
433.923	-12.97
434.113	613.71
434.303	718.15
434.493	21.85
434.682	-127.66
434.872	937.29
435.062	329.04
435.251	17.75
435.441	-90.79
435.631	1168.71
435.82	765.26
436.01	-283.3
436.2	-55.98
436.389	734.54
436.579	1328.45
436.768	222.55
436.958	273.75
437.147	775.5
437.337	1058.12
437.527	107.86
437.716	-55.98
437.906	1281.35
438.095	820.55
438.285	34.13
438.474	222.55
438.664	1174.85
438.853	988.49
439.043	308.56
439.232	1.37
439.422	1078.6
439.611	1172.8
439.8	175.44
439.99	496.97
440.179	1193.28
440.369	1551.68
440.558	-62.12
440.748	197.97
440.937	847.18
441.126	732.49
441.316	535.89
441.505	355.66
441.695	1353.02
441.884	1666.36
442.073	435.53
442.263	234.83
442.452	1117.51
442.642	1434.94
442.831	322.9
443.02	687.43
443.21	1641.79
443.399	2225.46
443.588	421.2
443.778	531.79
443.967	1975.61
444.156	1535.29
444.346	335.18
444.535	349.52
444.725	1975.61
444.914	1295.68
445.103	480.59
445.293	632.14
445.482	2008.37
445.671	1557.82
445.861	738.63
446.05	877.9
446.239	1789.24
446.429	1328.45
446.618	535.89
446.807	920.9
446.997	1899.83
447.186	1699.13
447.376	841.03
447.565	1013.06
447.754	2006.33
447.944	2176.31
448.133	869.7
448.322	607.56
448.512	1541.44
448.701	2327.86
448.891	775.5
449.08	986.44
449.269	955.72
449.459	1455.42
449.648	798.03
449.838	838.98
450.027	1402.18
450.217	1287.49
450.406	664.91
450.595	779.59
450.785	1840.44
450.974	1748.28
451.164	705.87
451.353	972.1
451.543	1754.43
451.732	2030.9
451.922	748.87
452.111	787.79
452.301	1246.53
452.49	1041.73
452.68	460.11
452.869	1094.98
453.059	1385.79
453.249	1828.15
453.438	361.81
453.628	845.13
453.817	1619.26
454.007	1582.4
454.197	271.7
454.386	750.92
454.576	1805.63
454.765	1754.43
454.955	757.07
455.145	419.15
455.334	1385.79
455.524	1127.75
455.714	746.83
455.904	353.62
456.093	2098.49
456.283	1455.42
456.473	443.73
456.663	562.51
456.852	1484.09
457.042	1563.97
457.232	595.28
457.422	1240.39
457.612	1561.92
457.802	1713.47
457.991	226.64
458.181	402.77
458.371	1664.32
458.561	1553.73
458.751	533.84
458.941	363.86
459.131	1340.74
459.321	1070.41
459.511	804.17
459.701	607.56
459.891	1512.77
460.081	963.91
460.271	453.97
460.461	402.77
460.651	2057.53
460.841	1979.7
461.032	419.15
461.222	550.22
461.412	1209.67
461.602	2135.35
461.792	255.31
461.983	232.79
462.173	1383.74
462.363	1928.5
462.554	435.53
462.744	456.01
462.934	1639.74
463.125	1443.14
463.315	222.55
463.505	494.93
463.696	1504.57
463.886	1066.31
464.077	247.12
464.267	322.9
464.458	1688.89
464.648	1033.54
464.839	550.22
465.03	345.42
465.22	914.76
465.411	1410.37
465.601	275.79
465.792	212.31
465.983	1033.54
466.174	1467.71
466.364	19.8
466.555	339.28
466.746	1336.64
466.937	1039.69
467.128	142.68
467.319	281.94
467.51	1572.16
467.701	2196.79
467.891	343.38
468.082	281.94
468.274	1213.76
468.465	701.77
468.656	419.15
468.847	17.75
469.038	968.01
469.229	1027.4
469.42	382.29
469.612	126.29
469.803	1398.08
469.994	1332.55
470.185	380.24
470.377	187.73
470.568	1185.09
470.76	1287.49
470.951	279.89
471.142	472.4
471.334	1459.52
471.526	1369.41
471.717	578.89
471.909	208.21
472.1	1115.46
472.292	1195.33
472.484	136.53
472.675	240.98
472.867	1189.19
473.059	1803.58
473.251	451.92
473.443	255.31
473.635	1338.69
473.826	1377.6
474.018	216.4
474.21	492.88
474.402	1260.87
474.595	1676.6
474.787	238.93
474.979	521.55
475.171	1060.17
475.363	775.5
475.555	1.37
475.748	255.31
475.94	1529.15
476.132	1002.82
476.325	216.4
476.517	793.93
476.71	2016.57
476.902	1027.4
477.095	257.36
477.287	593.23
477.48	1473.85
477.673	1357.12
477.865	566.6
478.058	306.51
478.251	1480
478.444	1713.47
478.636	521.55
478.829	157.01
479.022	1338.69
479.215	1557.82
479.408	560.46
479.601	877.9
479.794	1033.54
479.988	1207.62
480.181	722.25
480.374	519.5
480.567	1568.06
480.76	1742.14
480.954	519.5
481.147	124.24
481.341	1187.14
481.534	1353.02
481.728	539.98
481.921	722.25
482.115	1688.89
482.308	1910.07
482.502	396.62
482.696	419.15
482.89	2200.88
483.084	1598.78
483.277	564.56
483.471	775.5
483.665	1885.5
483.859	2573.61
484.053	259.41
484.247	267.6
484.442	1576.25
484.636	1541.44
484.83	521.55
485.024	705.87
485.219	1355.07
485.413	1328.45
485.608	415.06
485.802	728.39
485.997	2026.81
486.191	1377.6
486.386	572.75
486.58	730.44
486.775	1711.42
486.97	1848.63
487.165	720.2
487.36	677.2
487.555	1551.68
487.75	1533.25
487.945	873.8
488.14	443.73
488.335	1295.68
488.53	1361.22
488.725	611.66
488.92	832.84
489.116	2184.5
489.311	1713.47
489.507	443.73
489.702	1254.72
489.898	2041.14
490.093	1238.34
490.289	1086.79
490.485	761.16
490.68	1181
490.876	2024.76
491.072	513.36
491.268	767.31
491.464	2024.76
491.66	1936.7
491.856	726.35
492.052	1062.21
492.248	2006.33
492.445	1719.61
492.641	613.71
492.837	679.24
493.034	2053.43
493.23	2159.92
493.427	1150.28
493.623	863.56
493.82	1860.92
494.017	2209.08
494.214	769.35
494.41	609.61
494.607	1887.54
494.804	1426.75
495.001	804.17
495.198	877.9
495.395	1957.18
495.593	1846.59
495.79	832.84
495.987	773.45
496.184	1246.53
496.382	1942.84
496.579	791.88
496.777	916.81
496.974	2458.93
497.172	2135.35
497.37	861.51
497.568	654.67
497.766	2596.14
497.963	1830.2
498.161	732.49
498.359	976.2
498.558	2344.24
498.756	2063.67
498.954	755.02
499.152	1248.58
499.351	2016.57
499.549	1926.46
499.747	935.24
499.946	890.18
500.145	1645.88
500.343	1836.35
500.542	849.22
500.741	1033.54
500.94	1983.8
501.139	2147.64
501.338	886.09
501.537	1181
501.736	2516.27
501.935	2164.02
502.134	689.48
502.334	1029.45
502.533	2143.54
502.733	2071.86
502.932	877.9
503.132	1019.21
503.331	1770.81
503.531	2209.08
503.731	1008.97
503.931	798.03
504.131	1633.6
504.331	2207.03
504.531	894.28
504.731	1008.97
504.931	1957.18
505.132	1936.7
505.332	920.9
505.532	912.71
505.733	2041.14
505.933	2452.78
506.134	1035.59
506.335	800.07
506.536	1535.29
506.736	2233.65
506.937	869.7
507.138	707.91
507.34	2686.25
507.541	1895.74
507.742	1246.53
507.943	734.54
508.145	1920.31
508.346	1316.16
508.548	726.35
508.749	834.89
508.951	1369.41
509.153	1574.21
509.354	834.89
509.556	1027.4
509.758	2157.88
509.96	1361.22
510.163	1025.35
510.365	1113.41
510.567	1471.81
510.769	1631.55
510.972	800.07
511.174	1144.13
511.377	1469.76
511.58	2639.15
511.782	691.53
511.985	763.21
512.188	2309.43
512.391	2014.52
512.594	673.1
512.797	980.29
513.001	2092.34
513.204	2336.05
513.407	953.67
513.611	871.75
513.814	1955.13
514.018	2233.65
514.222	1008.97
514.425	935.24
514.629	1860.92
514.833	1832.25
515.037	953.67
515.241	767.31
515.445	1441.09
515.65	1508.67
515.854	800.07
516.059	890.18
516.263	1809.72
516.468	1938.74
516.672	779.59
516.877	861.51
517.082	1369.41
517.287	1873.21
517.492	1068.36
517.697	781.64
517.902	1860.92
518.107	1543.49
518.313	869.7
518.518	820.55
518.724	2288.95
518.929	1783.1
519.135	828.74
519.341	591.18
519.547	1879.35
519.753	1932.6
519.959	759.11
520.165	732.49
520.371	2131.25
520.577	2557.23
520.784	632.14
520.99	1074.5
521.197	1793.34
521.404	1793.34
521.61	601.42
521.817	634.19
522.024	2176.31
522.231	1549.63
522.438	320.85
522.645	1248.58
522.853	1584.45
523.06	1996.09
523.268	820.55
523.475	888.14
523.683	1912.12
523.891	1942.84
524.098	523.6
524.306	888.14
524.514	1682.75
524.722	1602.88
524.931	886.09
525.139	910.66
525.347	1275.2
525.556	1672.51
525.764	855.37
525.973	1033.54
526.182	1834.3
526.391	1412.42
526.6	763.21
526.809	763.21
527.018	1680.7
527.227	1852.73
527.436	802.12
527.646	705.87
527.855	1940.79
528.065	1680.7
528.275	742.73
528.484	853.32
528.694	1928.5
528.904	1791.29
529.114	709.96
529.325	871.75
529.535	1365.31
529.745	1926.46
529.956	732.49
530.166	730.44
530.377	1813.82
530.588	2280.75
530.799	1070.41
531.01	1004.87
531.221	2241.84
531.432	2172.21
531.643	1047.88
531.855	1385.79
532.066	2223.41
532.278	1811.77
532.489	976.2
532.701	800.07
532.913	2299.19
533.125	2000.18
533.337	666.96
533.549	795.98
533.762	2192.69
533.974	1455.42
534.186	562.51
534.399	937.29
534.612	2188.6
534.825	1893.69
535.037	1127.75
535.25	998.73
535.464	1609.02
535.677	2385.2
535.89	808.27
536.104	1113.41
536.317	1981.75
536.531	1795.39
536.744	1271.11
536.958	1013.06
537.172	2008.37
537.386	1877.3
537.6	1035.59
537.815	1013.06
538.029	2254.13
538.244	2401.58
538.458	806.22
538.673	1084.74
538.888	2180.4
539.103	2491.7
539.318	1353.02
539.533	939.34
539.748	2032.95
539.963	1758.52
540.179	849.22
540.394	914.76
540.61	1531.2
540.826	1934.65
541.042	1017.16
541.258	951.62
541.474	2651.44
541.69	2016.57
541.906	1129.8
542.123	963.91
542.339	2000.18
542.556	1844.54
542.773	1035.59
542.99	1099.08
543.207	1901.88
543.424	1764.67
543.641	1234.24
543.858	1492.29
544.076	1836.35
544.293	1688.89
544.511	1090.88
544.729	927.05
544.947	1987.9
545.165	1981.75
545.383	1084.74
545.601	1062.21
545.819	2155.83
546.038	1967.42
546.256	1213.76
546.475	1051.97
546.694	2940.2
546.913	2348.34
547.132	1656.12
547.351	1183.04
547.57	1846.59
547.79	1754.43
548.009	1076.55
548.229	1004.87
548.449	1824.06
548.668	2352.43
548.888	1258.82
549.109	1181
549.329	2290.99
549.549	2481.46
549.77	978.25
549.99	1310.02
550.211	2356.53
550.432	2774.32
550.653	1144.13
550.874	1258.82
551.095	2940.2
551.316	2024.76
551.538	1041.73
551.759	1262.91
551.981	2233.65
552.203	2379.06
552.424	1213.76
552.646	1604.92
552.869	2131.25
553.091	2110.77
553.313	1418.56
553.536	1271.11
553.758	2493.74
553.981	2112.82
554.204	1232.19
554.427	1373.5
554.65	2503.98
554.873	1738.04
555.097	855.37
555.32	1150.28
555.544	2571.57
555.768	2327.86
555.992	1301.83
556.216	1107.27
556.44	1901.88
556.664	2450.74
556.888	1639.74
557.113	1078.6
557.337	2862.38
557.562	2712.88
557.787	1090.88
558.012	1332.55
558.237	2288.95
558.462	2231.6
558.688	1525.05
558.913	1432.9
559.139	1840.44
559.365	2585.9
559.591	1371.46
559.817	1285.44
560.043	2618.67
560.269	2792.75
560.496	1795.39
560.722	1588.54
560.949	2751.79
561.176	1873.21
561.403	1396.03
561.63	1492.29
561.857	1994.04
562.084	2112.82
562.312	1205.57
562.539	1582.4
562.767	2966.82
562.995	2258.23
563.223	1666.36
563.451	1766.71
563.679	2356.53
563.908	2434.35
564.136	1697.08
564.365	1985.85
564.594	2069.81
564.823	3517.73
565.052	1725.76
565.281	1406.27
565.51	2676.01
565.74	2331.95
565.969	1471.81
566.199	1774.91
566.429	2712.88
566.659	2796.84
566.889	1715.52
567.119	1701.18
567.35	3147.05
567.58	3155.24
567.811	1953.08
568.042	1680.7
568.273	2520.37
568.504	2917.67
568.735	1908.02
568.966	2016.57
569.198	2811.18
569.43	3249.44
569.661	2131.25
569.893	2381.11
570.125	3456.29
570.358	3224.87
570.59	2186.55
570.822	2143.54
571.055	3214.63
571.288	3532.06
571.521	2020.66
571.754	2282.8
571.987	3648.8
572.22	3310.88
572.454	2534.7
572.687	2483.5
572.921	2929.96
573.155	3226.92
573.389	2960.68
573.623	2829.61
573.858	3278.12
574.092	3876.12
574.327	2768.17
574.561	3128.61
574.796	3503.39
575.031	3796.25
575.266	2676.01
575.502	2825.51
575.737	4091.16
575.973	3878.17
576.209	2954.54
576.445	2772.27
576.681	3650.85
576.917	4062.49
577.153	2970.92
577.39	3065.13
577.626	4027.67
577.863	4044.06
578.1	2964.78
578.337	3319.07
578.574	4048.15
578.812	4541.71
579.049	3585.31
579.287	3378.47
579.525	4554
579.763	4764.94
580.001	3327.27
580.239	3683.61
580.478	5117.19
580.716	4662.54
580.955	3745.05
581.194	3990.81
581.433	5074.18
581.672	4687.12
581.911	4044.06
582.151	3949.85
582.39	4887.82
582.63	5489.92
582.87	4085.02
583.11	4033.82
583.35	4566.29
583.591	5178.63
583.831	4564.24
584.072	4775.18
584.313	5477.63
584.554	5278.98
584.795	4713.74
585.036	4687.12
585.277	6280.44
585.519	6010.11
585.761	4623.63
586.003	4756.75
586.245	5997.82
586.487	6683.89
586.729	5180.68
586.972	5086.47
587.215	7001.32
587.457	5911.8
587.7	5506.31
587.944	5532.93
588.187	6165.75
588.43	6305.01
588.674	5547.26
588.918	5403.91
589.162	7042.28
589.406	6415.6
589.65	5631.23
589.894	6538.48
590.139	7013.61
590.384	7283.94
590.629	5924.09
590.874	6081.78
591.119	6784.24
591.364	7525.6
591.61	6411.51
591.855	6063.35
592.101	7980.25
592.347	7515.36
592.593	6458.61
592.84	6880.49
593.086	8451.28
593.333	7431.4
593.58	6810.86
593.827	6644.98
594.074	7890.14
594.321	7820.51
594.568	6790.38
594.816	6814.96
595.064	8017.11
595.312	8080.6
595.56	7103.72
595.808	7709.92
596.057	8836.3
596.305	8406.23
596.554	7097.58
596.803	7709.92
597.052	8864.97
597.301	9450.69
597.551	7644.38
597.8	8070.36
598.05	9016.52
598.3	8828.11
598.55	7785.69
598.8	8178.9
599.051	8776.91
599.301	8963.28
599.552	7857.37
599.803	8430.8
600.054	9653.44
600.305	9475.27
600.556	8570.07
600.808	8525.01
601.06	9348.29
601.312	9807.04
601.564	8729.81
601.816	8590.55
602.068	10413.24
602.321	10284.22
602.574	9139.4
602.827	8764.62
603.08	10136.76
603.333	10454.2
603.587	9106.63
603.84	9424.07
604.094	10554.55
604.348	10253.5
604.602	9137.35
604.856	9458.89
605.111	10802.35
605.365	10693.81
605.62	9678.02
605.875	9604.29
606.13	10654.9
606.386	10773.68
606.641	9852.09
606.897	9839.81
607.153	10796.21
607.409	11228.33
607.665	9868.48
607.921	9999.55
608.178	10966.19
608.435	11283.63
608.692	10341.56
608.949	10409.14
609.206	11646.12
609.463	11429.03
609.721	10566.84
609.979	10900.66
610.237	11570.34
610.495	11900.06
610.753	10994.86
611.012	11158.7
611.27	12305.56
611.529	12168.35
611.788	11216.04
612.047	11019.44
612.307	11648.16
612.566	12571.8
612.826	11033.77
613.086	11478.18
613.346	11838.62
613.606	12530.84
613.867	11396.26
614.127	11590.82
614.388	11947.17
614.649	12592.28
614.91	11289.77
615.172	11768.99
615.433	12258.46
615.695	12434.58
615.957	11850.91
616.219	11605.16
616.481	12956.82
616.743	12383.38
617.006	11330.73
617.269	11822.24
617.532	12868.75
617.795	13106.32
618.058	11482.28
618.322	11766.95
618.586	12930.19
618.849	12457.11
619.114	12170.4
619.378	11674.79
619.642	13003.92
619.907	13178
620.172	11895.97
620.437	12008.61
620.702	12983.44
620.967	12444.82
621.233	11877.54
621.499	11930.78
621.765	12862.61
622.031	13231.24
622.297	11936.93
622.564	12164.25
622.83	12573.85
623.097	13653.12
623.364	12129.44
623.631	12616.85
623.899	13266.06
624.166	13325.45
624.434	11967.65
624.702	11969.69
624.97	13440.14
625.239	12915.86
625.507	12057.76
625.776	12260.51
626.045	12760.21
626.314	13096.08
626.584	12207.26
626.853	12094.62
627.123	13091.98
627.393	12704.92
627.663	12242.07
627.933	12012.7
628.204	13458.57
628.474	13403.27
628.745	12053.66
629.016	12237.98
629.287	13462.66
629.559	12788.88
629.83	11912.35
630.102	11738.27
630.374	12862.61
630.646	13622.41
630.919	12235.93
631.191	12672.15
631.464	13079.69
631.737	12731.54
632.01	11840.67
632.284	12092.57
632.557	13503.62
632.831	13266.06
633.105	12010.65
633.379	12166.3
633.654	12536.98
633.928	13008.01
634.203	11855.01
634.478	11926.69
634.753	12924.05
635.028	12973.2
635.304	12057.76
635.58	11852.96
635.856	12768.4
636.132	12657.81
636.408	11953.31
636.685	11838.62
636.961	12786.83
637.238	12596.37
637.515	12092.57
637.793	11791.52
638.07	13374.6
638.348	12522.65
638.626	12012.7
638.904	12154.01
639.182	12063.9
639.461	12115.1
639.74	11775.14
640.019	11791.52
640.298	11711.65
640.577	12606.61
640.857	11502.76
641.136	11725.99
641.416	12364.95
641.696	12952.72
641.977	11605.16
642.257	11660.45
642.538	12444.82
642.819	12948.62
643.1	11289.77
643.382	11125.93
643.663	12541.08
643.945	12369.05
644.227	11506.85
644.509	11228.33
644.792	12766.35
645.074	12178.59
645.357	11103.4
645.64	10833.07
645.923	12233.88
646.207	12125.34
646.49	11234.47
646.774	10982.57
647.058	12119.2
647.342	12375.19
647.627	11103.4
647.911	10871.98
648.196	12149.92
648.481	12174.49
648.767	10749.11
649.052	11091.12
649.338	11719.84
649.624	11584.68
649.91	10585.27
650.196	10765.49
650.483	11938.98
650.77	11928.74
651.057	11027.63
651.344	10796.21
651.631	11670.69
651.919	11285.67
652.207	10577.08
652.495	10534.07
652.783	11938.98
653.071	11500.71
653.36	10169.53
653.649	10466.49
653.938	11306.15
654.227	11498.66
654.517	10765.49
654.806	10247.35
655.096	10976.43
655.387	11457.7
655.677	10337.46
655.968	9938.11
656.258	10740.91
656.549	11734.18
656.841	10290.36
657.132	10042.56
657.424	10865.84
657.716	11199.66
658.008	9915.58
658.3	9958.59
658.592	11031.73
658.885	10986.67
659.178	9807.04
659.471	9557.19
659.765	10384.57
660.058	10863.79
660.352	9405.64
660.646	9612.48
660.94	11154.6
661.235	10857.65
661.53	9671.87
661.824	9252.04
662.12	10486.97
662.415	9938.11
662.711	9495.75
663.006	9575.62
663.302	10089.66
663.599	9839.81
663.895	9237.7
664.192	9487.56
664.489	10720.43
664.786	10331.32
665.083	8721.62
665.381	9012.43
665.678	9798.85
665.976	10077.37
666.275	8561.87
666.573	9024.72
666.872	9581.76
667.171	9852.09
667.47	8856.78
667.769	8541.4
668.069	10003.64
668.368	10147
668.668	8406.23
668.969	8529.11
669.269	9315.53
669.57	9288.9
669.871	8512.72
670.172	8596.69
670.473	9839.81
670.775	9635.01
671.077	8336.6
671.379	8439
671.681	9784.51
671.983	9323.72
672.286	8053.98
672.589	8254.68
672.892	9108.68
673.196	9039.05
673.499	7892.19
673.803	8033.5
674.107	9114.83
674.411	8873.17
674.716	7963.87
675.021	8119.51
675.326	8840.4
675.631	9237.7
675.936	7625.95
676.242	7804.13
676.548	8641.75
676.854	9415.88
677.16	7347.43
677.467	7693.54
677.774	8594.64
678.081	8248.54
678.388	7849.18
678.696	7707.87
679.004	8801.49
679.312	8887.5
679.62	7447.78
679.928	7369.96
680.237	8588.5
680.546	7843.04
680.855	7267.56
681.164	7326.95
681.474	8062.17
681.784	8340.69
682.094	7130.34
682.404	6685.94
682.715	8260.82
683.026	7662.82
683.337	6960.36
683.648	7341.29
683.959	8365.27
684.271	7996.64
684.583	6841.58
684.895	6368.5
685.208	7795.93
685.52	7941.34
685.833	6786.29
686.146	6474.99
686.46	7836.89
686.773	7496.93
687.087	6671.6
687.401	6307.06
687.716	7722.21
688.03	7345.38
688.345	6046.97
688.66	6356.21
688.975	7419.11
689.291	7519.46
689.607	6614.26
689.923	6022.39
690.239	7091.43
690.555	7445.73
690.872	6030.59
691.189	5842.17
691.506	7163.11
691.824	7095.53
692.142	5842.17
692.459	5825.79
692.778	6632.69
693.096	6941.93
693.415	6341.88
693.734	5981.43
694.053	6601.97
694.372	6212.85
694.692	5465.35
695.012	5766.4
695.332	6065.4
695.652	6692.08
695.973	5678.33
696.294	5424.39
696.615	6120.7
696.936	7003.37
697.258	5068.04
697.579	5319.94
697.902	6075.64
698.224	6085.88
698.546	4949.26
698.869	5209.35
699.192	5833.98
699.516	6294.77
699.839	5211.4
700.163	5326.08
700.487	5584.13
700.811	6653.17
701.136	4693.26
701.461	4863.24
701.786	6038.78
702.111	6472.95
702.436	4670.73
702.762	4943.11
703.088	5999.87
703.415	6481.14
703.741	4891.91
704.068	4480.27
704.395	5475.59
704.722	5874.94
705.05	4529.42
705.377	4629.77
705.705	5635.33
706.034	5530.88
706.362	4388.11
706.691	4367.63
707.02	5801.21
707.349	5539.07
707.679	4357.39
708.009	4396.31
708.339	5430.53
708.669	5229.83
709	4267.28
709.33	4089.11
709.661	5211.4
709.993	5166.34
710.324	4506.9
710.656	4207.89
710.988	5164.29
711.321	5592.32
711.653	3734.81
711.986	4080.92
712.319	4470.03
712.652	5246.21
712.986	4123.93
713.32	3970.33
713.654	5184.77
713.988	5109
714.323	3929.37
714.658	3910.94
714.993	4640.01
715.328	4513.04
715.664	3716.38
716	3974.42
716.336	5311.75
716.673	4541.71
717.009	3892.51
717.346	3654.94
717.683	5094.66
718.021	4472.08
718.359	3484.96
718.697	3585.31
719.035	4197.65
719.373	4341.01
719.712	3583.26
720.051	3458.34
720.39	4650.25
720.73	4310.29
721.07	3253.54
721.41	3409.19
721.75	4625.68
722.091	4332.82
722.432	3329.31
722.773	3577.12
723.114	4191.51
723.456	4209.94
723.798	3208.48
724.14	3255.59
724.482	3884.31
724.825	4277.52
725.168	3380.51
725.511	2964.78
725.855	3951.9
726.198	3974.42
726.542	2923.82
726.887	3280.16
727.231	4201.75
727.576	3560.74
727.921	2983.21
728.266	2598.19
728.612	3761.44
728.958	4095.25
729.304	2899.24
729.651	3188
729.997	3616.03
730.344	3656.99
730.691	2671.92
731.039	3003.69
731.387	3679.52
731.735	3462.43
732.083	2862.38
732.431	2938.15
732.78	3349.79
733.129	2932.01
733.479	2481.46
733.828	2792.75
734.178	3319.07
734.528	3003.69
734.879	2534.7
735.23	2489.65
735.581	3513.63
735.932	3396.9
736.283	2569.52
736.635	2180.4
736.987	3695.9
737.34	3632.41
737.692	2299.19
738.045	2161.97
738.398	3372.32
738.752	3554.59
739.105	2164.02
739.459	2712.88
739.814	3620.13
740.168	3570.97
740.523	2196.79
740.878	2270.51
741.233	3237.16
741.589	3378.47
741.945	2071.86
742.301	2274.61
742.657	3450.14
743.014	2868.52
743.371	2020.66
743.728	2604.33
744.086	2962.73
744.444	2927.91
744.802	1852.73
745.16	2000.18
745.519	2991.4
745.878	2835.75
746.237	1840.44
746.597	1967.42
746.956	3249.44
747.316	2897.19
747.677	1842.49
748.037	1893.69
748.398	2630.96
748.759	2970.92
749.121	2131.25
749.482	2051.38
749.844	2524.46
750.207	2278.71
750.569	1443.14
750.932	1975.61
751.295	3286.31
751.659	2850.09
752.022	1590.59
752.386	2159.92
752.751	2630.96
753.115	2192.69
753.48	1787.19
753.845	1807.67
754.21	2585.9
754.576	2622.77
754.942	1535.29
755.308	1848.63
755.675	2307.38
756.041	3003.69
756.409	1234.24
756.776	1772.86
757.144	2962.73
757.511	2671.92
757.88	1484.09
758.248	1242.43
758.617	1871.16
758.986	2493.74
759.355	1500.48
759.725	1566.01
760.095	2002.23
760.465	2655.53
760.836	1156.42
761.206	1344.83
761.577	2630.96
761.949	2006.33
762.32	1639.74
762.692	1164.61
763.065	2078.01
763.437	1961.27
763.81	976.2
764.183	1426.75
764.556	2563.37
764.93	2102.58
765.304	1443.14
765.678	1488.19
766.053	2143.54
766.428	2190.64
766.803	920.9
767.178	1140.04
767.554	1606.97
767.93	1975.61
768.306	1008.97
768.683	955.72
769.06	2239.8
769.437	2022.71
769.814	888.14
770.192	863.56
770.57	1854.78
770.948	2573.61
771.327	1086.79
771.706	720.2
772.085	2014.52
772.464	2475.31
772.844	1045.83
773.224	894.28
773.605	1484.09
773.985	1658.17
774.366	980.29
774.748	1410.37
775.129	2110.77
775.511	2049.33
775.893	879.94
776.276	1051.97
776.658	2114.87
777.041	1822.01
777.425	597.32
777.808	988.49
778.192	1746.23
778.576	2010.42
778.961	513.36
779.346	677.2
779.731	1901.88
780.116	1307.97
780.502	720.2
780.888	791.88
781.274	1709.37
781.661	1363.26
782.048	570.7
782.435	623.95
782.823	1572.16
783.21	1750.33
783.598	709.96
783.987	744.78
784.376	1991.99
784.765	1377.6
785.154	736.59
785.544	525.65
785.933	1746.23
786.324	1297.73
786.714	822.6
787.105	421.2
787.496	1592.64
787.888	1269.06
788.279	378.19
788.671	533.84
789.064	1492.29
789.456	1672.51
789.849	314.7
790.242	372.05
790.636	1201.48
791.03	1594.69
791.424	320.85
791.818	1977.66
792.213	1738.04
792.608	1463.62
793.004	697.67
793.399	218.45
793.795	1453.38
794.192	1312.07
794.588	370
794.985	99.67
795.382	1389.89
795.78	1226.05
796.178	550.22
796.576	329.04
796.974	1819.96
797.373	1258.82
797.772	355.66
798.172	269.65
798.571	1248.58
798.971	1621.31
799.372	437.58
799.772	503.12
800.173	1654.08
800.574	1250.63
800.976	333.14
801.378	54.61
801.78	1111.36
802.182	732.49
802.585	410.96
802.988	277.84
803.392	1049.93
803.795	947.53
804.199	249.17
804.604	353.62
805.008	1373.5
805.413	1836.35
805.819	300.37
806.224	142.68
806.63	1090.88
807.036	1346.88
807.443	322.9
807.85	333.14
808.257	1158.47
808.664	1168.71
809.072	660.81
809.48	413.01
809.889	1455.42
810.297	1488.19
810.706	496.97
811.116	161.11
811.526	963.91
811.936	1039.69
812.346	44.37
812.757	181.59
813.167	1033.54
813.579	961.86
813.99	257.36
814.402	58.71
814.814	1629.5
815.227	865.61
815.64	-111.27
816.053	126.29
816.467	1205.57
816.88	1068.36
817.294	353.62
817.709	324.94
818.124	787.79
818.539	1490.24
818.954	271.7
819.37	302.42
819.786	642.38
820.202	1242.43
820.619	-314.02
821.036	42.32
821.453	1312.07
821.871	1043.78
822.289	-47.79
822.707	-66.22
823.126	1150.28
823.545	636.24
823.964	11.61
824.384	-68.27
824.804	677.2
825.224	1197.38
825.645	320.85
826.065	-86.7
826.487	1250.63
826.908	1277.25
827.33	75.09
827.752	324.94
828.175	1082.69
828.598	1207.62
829.021	351.57
829.444	675.15
829.868	1074.5
830.292	642.38
830.717	-170.66
831.142	-109.22
831.567	697.67
831.992	818.5
832.418	494.93
832.844	-193.19
833.27	925
833.697	822.6
834.124	-332.45
834.552	-219.82
834.979	1389.89
835.408	1205.57
835.836	-277.16
836.265	-4.78
836.694	615.76
837.123	1051.97
837.553	-260.77
837.983	-361.13
838.413	1078.6
838.844	959.81
839.275	-189.1
839.706	146.77
840.138	1439.04
840.57	609.61
841.003	-72.36
841.435	17.75
841.868	617.8
842.302	558.41
842.735	-47.79
843.169	-352.93
843.604	867.66
844.039	900.42
844.474	-285.35
844.909	-203.43
845.345	1043.78
845.781	908.62
846.217	-187.05
846.654	-363.17
847.091	1041.73
847.528	636.24
847.966	-365.22
848.404	-162.47
848.842	1357.12
849.281	111.96
849.72	-109.22
850.16	-338.6
850.599	558.41
851.039	451.92
851.48	120.15
851.921	-260.77
852.362	890.18
852.803	1221.95
853.245	-576.16
853.687	-150.18
854.129	929.1
854.572	464.21
855.015	-504.48
855.459	-418.47
855.903	376.14
856.347	933.19
856.791	-68.27
857.236	-234.15
857.681	1320.26
858.127	1480
858.572	38.23
859.019	-348.84
859.465	945.48
859.912	740.68
860.359	-447.14
860.807	-357.03
861.255	413.01
861.703	1062.21
862.151	-271.01
862.6	128.34
863.05	804.17
863.499	460.11
863.949	-281.25
864.4	-572.07
864.85	1226.05
865.301	1019.21
865.752	-189.1
866.204	-332.45
866.656	404.82
867.109	1004.87
867.561	-301.73
868.014	-15.02
868.468	894.28
868.921	1027.4
869.376	-238.25
869.83	-309.93
870.285	505.17
870.74	435.53
871.195	-187.05
871.651	-195.24
872.107	1119.56
872.564	394.58
873.021	-533.15
873.478	-543.39
873.936	857.42
874.394	814.41
874.852	-324.26
875.31	-197.29
875.769	611.66
876.229	1246.53
876.688	-195.24
877.148	-258.73
877.609	484.69
878.069	413.01
878.531	-84.65
878.992	-578.21
879.454	519.5
879.916	642.38
880.378	-277.16
880.841	-309.93
881.304	87.38
881.768	376.14
882.232	-449.19
882.696	-285.35
883.161	197.97
883.626	562.51
884.091	-170.66
884.557	-359.08
885.023	206.16
885.489	732.49
885.956	-670.37
886.423	-502.43
886.89	11.61
887.358	464.21
887.826	-365.22
888.295	-408.23
888.763	177.49
889.233	1086.79
889.702	-318.12
890.172	-441
890.642	496.97
891.113	361.81
891.584	-6.83
892.055	-359.08
892.527	798.03
892.999	877.9
893.472	-408.23
893.944	-201.38
894.417	484.69
894.891	167.25
895.365	-240.29
895.839	-316.07
896.314	574.8
896.789	-215.72
897.264	-330.41
897.74	-592.55
898.216	896.33
898.692	812.36
899.169	-490.15
899.646	-410.28
900.123	695.63
900.601	1086.79
901.079	-490.15
901.558	-252.58
902.037	795.98
902.516	525.65
902.996	-604.83
903.476	-651.94
903.956	353.62
904.437	705.87
904.918	-516.77
905.399	-625.31
905.881	724.3
906.363	720.2
906.846	-600.74
907.329	-375.46
907.812	42.32
908.296	662.86
908.78	-563.87
909.264	-633.5
909.749	335.18
910.234	879.94
910.719	-574.11
911.205	-209.58
911.691	77.14
912.178	677.2
912.665	75.09
913.152	-490.15
913.64	417.1
914.128	648.52
914.616	-371.36
915.105	-406.18
915.594	585.04
916.084	1101.12
916.574	-395.94
917.064	-735.9
917.555	58.71
918.046	611.66
918.537	-121.51
919.029	-803.49
919.521	300.37
920.013	865.61
920.506	-379.56
920.999	-596.64
921.493	765.26
921.987	345.42
922.481	-195.24
922.976	-477.86
923.471	396.62
923.967	560.46
924.462	-332.45
924.959	-416.42
925.455	535.89
925.952	468.3
926.449	-582.31
926.947	-506.53
927.445	447.82
927.944	417.1
928.442	-772.77
928.942	-678.56
929.441	687.43
929.941	144.72
930.442	-576.16
930.942	-502.43
931.443	763.21
931.945	99.67
932.447	-527.01
932.949	-469.67
933.451	339.28
933.954	353.62
934.458	-287.4
934.961	-623.27
935.465	224.59
935.97	245.07
936.475	-248.49
936.98	-627.36
937.486	-176.81
937.992	245.07
938.498	-490.15
939.005	-441
939.512	355.66
940.019	582.99
940.527	-416.42
941.035	-303.78
941.544	660.81
942.053	388.43
942.562	-182.95
943.072	-174.76
943.582	689.48
944.093	349.52
944.604	-598.69
945.115	-563.87
945.627	767.31
946.139	980.29
946.651	-473.76
947.164	-481.96
947.677	595.28
948.191	347.47
948.705	-572.07
949.219	-694.94
949.734	238.93
950.249	767.31
950.765	-576.16
951.281	-537.25
951.797	1393.98
952.314	847.18
952.831	-645.79
953.348	-776.86
953.866	666.96
954.384	355.66
954.903	-502.43
955.422	-653.98
955.941	423.25
956.461	492.88
956.981	-582.31
957.502	-350.89
958.023	677.2
958.544	533.84
959.066	-385.7
959.588	-670.37
960.11	36.18
960.633	748.87
961.156	-498.34
961.68	-490.15
962.204	759.11
962.729	99.67
963.253	-570.02
963.779	-2.73
964.304	636.24
964.83	898.38
965.357	-711.33
965.883	-488.1
966.411	456.01
966.938	699.72
967.466	-445.09
967.994	-746.14
968.523	175.44
969.052	974.15
969.582	-537.25
970.112	-580.26
970.642	89.43
971.173	795.98
971.704	-602.79
972.235	-391.84
972.767	681.29
973.3	312.66
973.832	-344.74
974.365	-723.62
974.899	494.93
975.433	576.84
975.967	-846.49
976.502	-240.29
977.037	474.45
977.572	933.19
978.108	-703.14
978.644	-785.05
979.181	1150.28
979.718	619.85
980.255	-965.28
980.793	-422.56
981.331	-170.66
981.87	750.92
982.409	-475.81
982.948	-357.03
983.488	353.62
984.028	806.22
984.569	-498.34
985.11	-490.15
985.651	896.33
986.193	566.6
986.735	-750.24
987.278	-746.14
987.821	-103.08
988.364	347.47
988.908	-469.67
989.452	-694.94
989.997	-389.8
990.542	466.25
991.088	-674.46
991.633	-264.87
992.18	251.22
992.726	-195.24
993.273	-553.63
993.821	-486.05
994.369	296.27
994.917	726.35
995.465	-748.19
996.014	-866.97
996.564	742.73
997.114	116.05
997.664	-365.22
998.215	-692.9
998.766	519.5
999.317	-80.55
999.869	-498.34
1000.421	-721.57
1000.974	601.42
1001.527	660.81
1002.081	-658.08
1002.635	-273.06
1003.189	402.77
1003.744	734.54
1004.299	-850.59
1004.854	-461.48
1005.41	853.32
1005.967	189.78
1006.523	-510.63
1007.081	-490.15
1007.638	558.41
1008.196	529.74
1008.755	-801.44
1009.313	-449.19
1009.873	656.72
1010.432	42.32
1010.992	-391.84
1011.553	-514.72
1012.114	386.38
1012.675	-51.88
1013.237	-391.84
1013.799	-277.16
1014.361	597.32
1014.924	-113.32
1015.487	-750.24
1016.051	-578.21
1016.615	742.73
1017.18	486.73
1017.745	-662.18
1018.31	-160.42
1018.876	890.18
1019.442	445.77
1020.009	-484
1020.576	-828.06
1021.143	214.35
1021.711	623.95
1022.28	-594.59
1022.848	-613.03
1023.417	804.17
1023.987	267.6
1024.557	-619.17
1025.127	-596.64
1025.698	-139.94
1026.269	30.04
1026.841	-797.34
1027.413	-430.76
1027.985	300.37
1028.558	318.8
1029.131	-711.33
1029.705	-451.24
1030.279	349.52
1030.854	437.58
1031.429	-692.9
1032.004	-242.34
1032.58	654.67
1033.156	-64.17
1033.733	-717.47
1034.31	-653.98
1034.887	666.96
1035.465	621.9
1036.043	-989.85
1036.622	-572.07
1037.201	267.6
1037.781	589.13
1038.361	-719.52
1038.941	-768.67
1039.522	398.67
1040.103	785.74
1040.685	-694.94
1041.267	-293.54
1041.85	1090.88
1042.433	544.08
1043.016	-793.25
1043.6	-570.02
1044.184	-264.87
1044.769	542.03
1045.354	-586.4
1045.939	-750.24
1046.525	298.32
1047.111	392.53
1047.698	-496.29
1048.285	-760.48
1048.873	476.49
1049.461	-27.31
1050.049	-711.33
1050.638	-639.65
1051.228	36.18
1051.817	804.17
1052.407	-682.66
1052.998	-264.87
1053.589	466.25
1054.18	572.75
1054.772	-948.89
1055.365	-678.56
1055.957	419.15
1056.55	206.16
1057.144	-594.59
1057.738	-684.7
1058.333	85.33
1058.927	126.29
1059.523	-563.87
1060.118	-653.98
1060.715	48.47
1061.311	640.33
1061.908	-678.56
1062.506	-428.71
1063.103	423.25
1063.702	-60.07
1064.3	-942.75
1064.9	-678.56
1065.499	992.58
1066.099	-25.26
1066.7	-600.74
1067.301	-856.73
1067.902	755.02
1068.504	802.12
1069.106	-297.64
1069.709	-488.1
1070.312	773.45
1070.915	468.3
1071.519	-633.5
1072.123	-410.28
1072.728	591.18
1073.333	269.65
1073.939	-311.97
1074.545	-567.97
1075.152	582.99
1075.759	130.39
1076.366	-770.72
1076.974	-441
1077.582	255.31
1078.191	705.87
1078.8	-488.1
1079.41	-899.74
1080.02	427.34
1080.63	347.47
1081.241	-238.25
1081.852	-924.32
1082.464	380.24
1083.076	298.32
1083.689	-694.94
1084.302	-555.68
1084.915	761.16
1085.529	525.65
1086.144	-629.41
1086.759	-508.58
1087.374	101.72
1087.99	257.36
1088.606	-744.1
1089.222	-660.13
1089.839	640.33
1090.457	232.79
1091.075	-582.31
1091.693	-875.17
1092.312	494.93
1092.931	834.89
1093.551	-778.91
1094.171	-293.54
1094.792	443.73
1095.413	105.81
1096.034	-567.97
1096.656	-600.74
1097.278	568.65
1097.901	304.46
1098.524	-662.18
1099.148	-430.76
1099.772	914.76
1100.397	410.96
1101.022	-801.44
1101.647	-565.92
1102.273	380.24
1102.899	664.91
1103.526	-1000.09
1104.153	-428.71
1104.781	714.06
1105.409	707.91
1106.038	-682.66
1106.667	-862.88
1107.296	226.64
1107.926	288.08
1108.556	-289.45
1109.187	-541.35
1109.818	329.04
1110.45	599.37
1111.082	-522.91
1111.715	-678.56
1112.348	240.98
1112.981	214.35
1113.615	-279.21
1114.25	-522.91
1114.885	89.43
1115.52	206.16
1116.156	-817.82
1116.792	-641.7
1117.428	519.5
1118.066	120.15
1118.703	-348.84
1119.341	-596.64
1119.98	669
1120.618	857.42
1121.258	-742.05
1121.898	-768.67
1122.538	388.43
1123.179	-148.14
1123.82	-555.68
1124.461	-645.79
1125.103	607.56
1125.746	126.29
1126.389	-481.96
1127.032	-801.44
1127.676	552.27
1128.32	931.14
1128.965	-561.83
1129.61	-549.54
1130.256	111.96
1130.902	666.96
1131.549	-608.93
1132.196	-572.07
1132.844	730.44
1133.491	603.47
1134.14	-574.11
1134.789	-576.16
1135.438	1078.6
1136.088	93.52
1136.738	-686.75
1137.389	-725.66
1138.04	413.01
1138.692	877.9
1139.344	-619.17
1139.996	-678.56
1140.649	492.88
1141.303	632.14
1141.957	-459.43
1142.611	-576.16
1143.266	331.09
1143.921	376.14
1144.577	-651.94
1145.233	-613.03
1145.89	73.04
1146.547	533.84
1147.205	-834.21
1147.863	-561.83
1148.521	419.15
1149.18	607.56
1149.84	-733.86
1150.5	-703.14
1151.16	288.08
1151.821	648.52
1152.482	-543.39
1153.144	-121.51
1153.806	378.19
1154.469	517.45
1155.132	-766.62
1155.796	-531.11
1156.46	521.55
1157.124	968.01
1157.789	-744.1
1158.455	-680.61
1159.121	300.37
1159.787	40.28
1160.454	-547.49
1161.121	-510.63
1161.789	370
1162.457	585.04
1163.126	-596.64
1163.795	-547.49
1164.465	386.38
1165.135	134.48
1165.806	-551.59
1166.477	-551.59
1167.148	-393.89
1167.82	427.34
1168.493	-811.68
1169.166	-455.33
1169.839	25.94
1170.513	394.58
1171.187	-832.16
1171.862	-662.18
1172.537	128.34
1173.213	390.48
1173.889	-694.94
1174.566	-725.66
1175.243	724.3
1175.921	292.18
1176.599	-469.67
1177.278	-352.93
1177.957	-96.94
1178.636	771.4
1179.316	-397.99
1179.997	-826.01
1180.678	460.11
1181.359	738.63
1182.041	-711.33
1182.723	-729.76
1183.406	761.16
1184.089	132.44
1184.773	-793.25
1185.457	-826.01
1186.142	212.31
1186.827	1254.72
1187.513	-717.47
1188.199	-328.36
1188.886	138.58
1189.573	370
1190.26	-635.55
1190.948	-688.8
1191.637	50.52
1192.326	216.4
1193.015	-715.42
1193.705	-842.4
1194.396	181.59
1195.087	275.79
1195.778	-518.82
1196.47	-742.05
1197.162	355.66
1197.855	501.07
1198.548	-686.75
1199.242	-846.49
1199.936	494.93
1200.631	601.42
1201.326	-817.82
1202.022	-719.52
1202.718	750.92
1203.415	388.43
1204.112	-924.32
1204.81	-623.27
1205.508	85.33
1206.206	1064.26
1206.905	-688.8
1207.605	-682.66
1208.305	288.08
1209.005	382.29
1209.706	-785.05
1210.408	-699.04
1211.11	255.31
1211.812	443.73
1212.515	-518.82
1213.218	-602.79
1213.922	243.03
1214.627	228.69
1215.331	-535.2
1216.037	-588.45
1216.743	-4.78
1217.449	410.96
1218.156	-504.48
1218.863	-465.57
1219.571	279.89
1220.279	773.45
1220.988	-799.39
1221.697	-541.35
1222.406	589.13
1223.117	191.83
1223.827	-572.07
1224.538	-551.59
1225.25	306.51
1225.962	427.34
1226.675	-938.65
1227.388	-465.57
1228.101	255.31
1228.815	-58.03
1229.53	-535.2
1230.245	-477.86
1230.961	370
1231.677	214.35
1232.393	-635.55
1233.11	-641.7
1233.828	943.43
1234.546	396.62
1235.264	-682.66
1235.983	-385.7
1236.702	1045.83
1237.422	421.2
1238.143	-346.79
1238.864	-719.52
1239.585	714.06
1240.307	-252.58
1241.029	-852.64
1241.752	-338.6
1242.476	589.13
1243.2	836.94
1243.924	-553.63
1244.649	-582.31
1245.374	611.66
1246.1	783.69
1246.826	-866.97
1247.553	-649.89
1248.28	484.69
1249.008	484.69
1249.737	-789.15
1250.465	-457.38
1251.195	390.48
1251.925	771.4
1252.655	-670.37
1253.386	-330.41
1254.117	283.99
1254.849	181.59
1255.581	-596.64
1256.314	-606.88
1257.047	654.67
1257.781	525.65
1258.515	-774.81
1259.25	-96.94
1259.985	331.09
1260.721	351.57
1261.457	-559.78
1262.194	-866.97
1262.931	157.01
1263.669	808.27
1264.407	-484
1265.146	-744.1
1265.885	433.49
1266.625	208.21
1267.365	-588.45
1268.106	-598.69
1268.847	351.57
1269.589	161.11
1270.331	-412.32
1271.074	-438.95
1271.817	423.25
1272.561	449.87
1273.305	-314.02
1274.05	-488.1
1274.795	439.63
1275.541	515.41
1276.287	-881.31
1277.034	-834.21
1277.781	-6.83
1278.529	582.99
1279.277	-821.92
1280.026	-858.78
1280.775	773.45
1281.525	-465.57
1282.275	-842.4
1283.026	-135.85
1283.777	308.56
1284.529	464.21
1285.281	-645.79
1286.034	-838.3
1286.788	812.36
1287.541	353.62
1288.296	-977.56
1289.051	-408.23
1289.806	453.97
1290.562	476.49
1291.318	-719.52
1292.075	-553.63
1292.832	828.74
1293.59	836.94
1294.349	-666.27
1295.108	-645.79
1295.867	1062.21
1296.627	689.48
1297.387	-801.44
1298.148	-508.58
1298.91	271.7
1299.672	34.13
1300.434	-703.14
1301.197	-737.95
1301.961	1164.61
1302.725	224.59
1303.489	-441
1304.254	-555.68
1305.02	378.19
1305.786	798.03
1306.552	-975.52
1307.319	-866.97
1308.087	795.98
1308.855	843.08
1309.624	-649.89
1310.393	-477.86
1311.162	-203.43
1311.933	595.28
1312.703	-635.55
1313.474	-418.47
1314.246	261.46
1315.018	568.65
1315.791	-207.53
1316.564	-756.38
1317.338	568.65
1318.112	283.99
1318.887	-799.39
1319.662	-522.91
1320.438	417.1
1321.214	140.63
1321.991	-459.43
1322.769	-682.66
1323.546	408.91
1324.325	25.94
1325.104	-819.87
1325.883	-555.68
1326.663	-117.42
1327.444	341.33
1328.224	-723.62
1329.006	-486.05
1329.788	392.53
1330.571	308.56
1331.354	-291.49
1332.137	-715.42
1332.921	732.49
1333.706	-47.79
1334.491	-441
1335.277	-481.96
1336.063	68.95
1336.849	185.68
1337.637	-703.14
1338.424	-748.19
1339.213	996.68
1340.001	832.84
1340.791	-879.26
1341.581	-375.46
1342.371	603.47
1343.162	298.32
1343.953	-662.18
1344.745	-541.35
1345.537	474.45
1346.33	544.08
1347.124	-629.41
1347.918	-404.13
1348.712	951.62
1349.507	478.54
1350.303	-723.62
1351.099	-479.91
1351.896	71
1352.693	-250.53
1353.49	-598.69
1354.289	-613.03
1355.087	460.11
1355.887	628.04
1356.686	-481.96
1357.487	-688.8
1358.288	27.99
1359.089	247.12
1359.891	-236.2
1360.693	-592.55
1361.496	-119.46
1362.3	265.55
1363.104	-692.9
1363.908	-647.84
1364.713	879.94
1365.519	886.09
1366.325	-664.22
1367.131	-920.22
1367.939	230.74
1368.746	734.54
1369.555	-971.42
1370.363	-574.11
1371.173	808.27
1371.982	1207.62
1372.793	-709.28
1373.604	-944.8
1374.415	623.95
1375.227	707.91
1376.039	-793.25
1376.852	-703.14
1377.666	1021.25
1378.48	456.01
1379.295	-803.49
1380.11	-875.17
1380.925	-29.35
1381.742	939.34
1382.558	-670.37
1383.376	-563.87
1384.193	460.11
1385.012	85.33
1385.831	-748.19
1386.65	-651.94
1387.47	181.59
1388.29	197.97
1389.111	-567.97
1389.933	-830.11
1390.755	644.43
1391.578	331.09
1392.401	-914.08
1393.225	-629.41
1394.049	822.6
1394.873	210.26
1395.699	-690.85
1396.525	-563.87
1397.351	677.2
1398.178	-6.83
1399.005	-602.79
1399.833	-1143.45
1400.662	628.04
1401.491	965.96
1402.321	-629.41
1403.151	-555.68
1403.981	415.06
1404.813	439.63
1405.644	-512.67
1406.477	-758.43
1407.309	224.59
1408.143	1097.03
1408.977	-668.32
1409.811	-645.79
1410.646	945.48
1411.482	798.03
1412.318	-586.4
1413.155	-688.8
1413.992	681.29
1414.829	-37.55
1415.668	-633.5
1416.506	-357.03
1417.346	695.63
1418.186	437.58
1419.026	-752.29
1419.867	-897.69
1420.709	691.53
1421.551	499.02
1422.393	-934.56
1423.236	-522.91
1424.08	439.63
1424.924	357.71
1425.769	-752.29
1426.614	-744.1
1427.46	513.36
1428.307	273.75
1429.154	-795.29
1430.001	-678.56
1430.849	394.58
1431.698	238.93
1432.547	-946.84
1433.397	-830.11
1434.247	548.17
1435.098	892.23
1435.949	-772.77
1436.801	-645.79
1437.653	118.1
1438.506	666.96
1439.36	-920.22
1440.214	-733.86
1441.069	509.26
1441.924	265.55
1442.78	-699.04
1443.636	-899.74
1444.493	314.7
1445.35	451.92
1446.208	-594.59
1447.067	-740
1447.926	390.48
1448.785	857.42
1449.645	-658.08
1450.506	-717.47
1451.367	349.52
1452.229	-60.07
1453.091	-768.67
1453.954	-299.69
1454.818	230.74
1455.682	314.7
1456.546	-703.14
1457.412	-891.55
1458.277	664.91
1459.143	281.94
1460.01	-498.34
1460.878	-735.9
1461.745	433.49
1462.614	93.52
1463.483	-905.88
1464.352	-445.09
1465.223	740.68
1466.093	615.76
1466.964	-789.15
1467.836	-840.35
1468.709	752.97
1469.581	441.68
1470.455	-588.45
1471.329	-772.77
1472.203	42.32
1473.079	169.3
1473.954	-297.64
1474.831	-758.43
1475.707	99.67
1476.585	222.55
1477.463	-709.28
1478.341	-606.88
1479.22	25.94
1480.1	458.06
1480.98	-967.32
1481.861	-793.25
1482.742	419.15
1483.624	603.47
1484.506	-400.04
1485.389	-596.64
1486.273	202.07
1487.157	216.4
1488.041	-623.27
1488.926	-924.32
1489.812	372.05
1490.699	331.09
1491.585	-653.98
1492.473	-688.8
1493.361	-187.05
1494.249	337.23
1495.139	-488.1
1496.028	-635.55
1496.919	25.94
1497.809	529.74
1498.701	-723.62
1499.593	-688.8
1500.485	257.36
1501.378	726.35
1502.272	-307.88
1503.166	-637.6
1504.061	652.62
1504.956	386.38
1505.852	-617.12
1506.749	-885.41
1507.646	415.06
1508.543	259.41
1509.442	-875.17
1510.34	-49.83
1511.24	968.01
1512.14	255.31
1513.04	-807.58
1513.941	-879.26
1514.843	1238.34
1515.745	38.23
1516.648	-617.12
1517.551	-969.37
1518.455	-209.58
1519.359	-295.59
1520.264	-817.82
1521.17	-989.85
1522.076	187.73
1522.983	537.93
1523.89	-940.7
1524.798	-459.43
1525.706	374.1
1526.615	1258.82
1527.525	-858.78
1528.435	-617.12
1529.346	640.33
1530.257	124.24
1531.169	-449.19
1532.081	-793.25
1532.994	1123.65
1533.908	265.55
1534.822	-774.81
1535.737	-690.85
1536.652	384.34
1537.568	421.2
1538.484	-686.75
1539.401	-940.7
1540.319	836.94
1541.237	-15.02
1542.156	-801.44
1543.075	-733.86
1543.995	927.05
1544.916	1056.07
1545.837	-799.39
1546.758	-801.44
1547.68	615.76
1548.603	550.22
1549.527	-547.49
1550.451	-850.59
1551.375	542.03
1552.3	718.15
1553.226	-862.88
1554.152	-725.66
1555.079	849.22
1556.006	298.32
1556.934	-488.1
1557.863	-506.53
1558.792	894.28
1559.722	101.72
1560.652	-447.14
1561.583	-858.78
1562.514	-101.03
1563.446	134.48
1564.379	-977.56
1565.312	-533.15
1566.246	722.25
1567.18	382.29
1568.115	-602.79
1569.051	-766.62
1569.987	767.31
1570.924	947.53
1571.861	-860.83
1572.799	-590.5
1573.737	697.67
1574.676	404.82
1575.616	-576.16
1576.556	-752.29
1577.497	-105.13
1578.438	116.05
1579.38	-719.52
1580.323	-666.27
1581.266	468.3
1582.21	734.54
1583.154	-766.62
1584.099	-830.11
1585.044	507.21
1585.99	812.36
1586.937	-393.89
1587.884	-639.65
1588.832	277.84
1589.78	761.16
1590.729	-690.85
1591.679	-441
1592.629	337.23
1593.58	394.58
1594.531	-621.22
1595.483	-547.49
1596.435	111.96
1597.388	7.51
1598.342	-424.61
1599.296	-547.49
1600.251	509.26
1601.207	728.39
1602.163	-610.98
1603.119	-772.77
1604.077	732.49
1605.034	877.9
1605.993	-518.82
1606.952	-127.66
1607.911	251.22
1608.872	365.9
1609.832	-756.38
1610.794	-844.45
1611.756	607.56
1612.718	490.83
1613.681	-363.17
1614.645	-623.27
1615.609	812.36
1616.574	347.47
1617.54	-209.58
1618.506	-744.1
1619.472	687.43
1620.44	732.49
1621.408	-113.32
1622.376	-494.24
1623.345	370
1624.315	707.91
1625.285	-545.44
1626.256	-436.9
1627.227	378.19
1628.199	-94.89
1629.172	-498.34
1630.145	-416.42
1631.119	597.32
1632.094	943.43
1633.069	-588.45
1634.044	-373.41
1635.02	173.39
1635.997	689.48
1636.975	-539.3
1637.953	-858.78
1638.931	949.57
1639.911	-37.55
1640.89	-776.86
1641.871	-604.83
1642.852	486.73
1643.833	480.59
1644.816	-776.86
1645.798	-889.5
1646.782	886.09
1647.766	154.96
1648.75	-750.24
1649.736	-703.14
1650.721	-37.55
1651.708	376.14
1652.695	-696.99
1653.682	-461.48
1654.671	439.63
1655.66	630.09
1656.649	-596.64
1657.639	-672.42
1658.63	-33.45
1659.621	181.59
1660.613	-969.37
1661.605	-815.77
1662.598	189.78
1663.592	243.03
1664.586	-969.37
1665.581	-748.19
1666.576	179.54
1667.572	335.18
1668.569	-606.88
1669.566	-774.81
1670.564	484.69
1671.563	804.17
1672.562	-731.81
1673.562	-334.5
1674.562	370
1675.563	503.12
1676.564	-481.96
1677.566	-559.78
1678.569	896.33
1679.572	-361.13
1680.576	-498.34
1681.581	-719.52
1682.586	134.48
1683.592	603.47
1684.598	-596.64
1685.605	-520.87
1686.613	630.09
1687.621	322.9
1688.63	-479.91
1689.639	-426.66
1690.649	138.58
1691.66	359.76
1692.671	-596.64
1693.683	-719.52
1694.696	9.56
1695.709	484.69
1696.722	-694.94
1697.737	-641.7
1698.752	130.39
1699.767	408.91
1700.783	-617.12
1701.8	-449.19
1702.818	357.71
1703.836	-53.93
1704.854	-830.11
1705.873	-627.36
1706.893	208.21
1707.914	380.24
1708.935	-658.08
1709.956	-613.03
1710.979	288.08
1712.002	390.48
1713.025	-715.42
1714.049	-537.25
1715.074	546.13
1716.099	626
1717.125	-826.01
1718.152	-805.53
1719.179	21.85
1720.207	699.72
1721.235	-203.43
1722.265	-252.58
1723.294	314.7
1724.325	189.78
1725.355	-359.08
1726.387	-506.53
1727.419	263.51
1728.452	574.8
1729.485	-604.83
1730.519	-821.92
1731.554	46.42
1732.589	453.97
1733.625	-817.82
1734.662	-563.87
1735.699	-133.8
1736.736	640.33
1737.775	-694.94
1738.814	-721.57
1739.853	101.72
1740.894	148.82
1741.934	-580.26
1742.976	-762.53
1744.018	546.13
1745.061	335.18
1746.104	-664.22
1747.148	-740
1748.193	404.82
1749.238	382.29
1750.284	-527.01
1751.33	-735.9
1752.377	435.53
1753.425	922.95
1754.473	-596.64
1755.522	-559.78
1756.572	683.34
1757.622	486.73
1758.673	-850.59
1759.724	-610.98
1760.776	683.34
1761.829	691.53
1762.882	-354.98
1763.936	-703.14
1764.991	-6.83
1766.046	990.53
1767.102	-436.9
1768.158	-815.77
1769.215	494.93
1770.273	552.27
1771.331	-567.97
1772.39	-760.48
1773.45	388.43
1774.51	476.49
1775.571	-864.93
1776.632	-236.2
1777.694	263.51
1778.757	464.21
1779.82	-418.47
1780.884	-500.39
1781.949	232.79
1783.014	464.21
1784.08	-932.51
1785.147	-662.18
1786.214	148.82
1787.282	204.11
1788.35	-441
1789.419	-498.34
1790.489	640.33
1791.559	460.11
1792.63	-715.42
1793.702	-424.61
1794.774	234.83
1795.847	525.65
1796.92	-383.65
1797.994	-551.59
1799.069	517.45
1800.144	1135.94
1801.22	-721.57
1802.297	-348.84
1803.374	34.13
1804.452	478.54
1805.531	-711.33
1806.61	-391.84
1807.69	675.15
1808.77	-215.72
1809.851	-510.63
1810.933	-897.69
1812.015	687.43
1813.098	73.04
1814.182	-666.27
1815.266	-545.44
1816.351	339.28
1817.437	283.99
1818.523	-545.44
1819.61	-629.41
1820.697	329.04
1821.785	1086.79
1822.874	-576.16
1823.963	-670.37
1825.053	243.03
1826.144	517.45
1827.235	-674.46
1828.327	-629.41
1829.42	316.75
1830.513	17.75
1831.607	-752.29
1832.701	-703.14
1833.796	288.08
1834.892	736.59
1835.989	-846.49
1837.086	-821.92
1838.183	380.24
1839.282	404.82
1840.381	-637.6
1841.48	-711.33
1842.581	542.03
1843.682	974.15
1844.783	-291.49
1845.885	-441
1846.988	693.58
1848.092	441.68
1849.196	-486.05
1850.301	-432.8
1851.406	52.56
1852.512	974.15
1853.619	-660.13
1854.726	-688.8
1855.834	60.76
1856.943	685.39
1858.052	-787.1
1859.162	-608.93
1860.273	349.52
1861.384	740.68
1862.496	-588.45
1863.608	-731.81
1864.721	435.53
1865.835	107.86
1866.95	-725.66
1868.065	-621.22
1869.181	179.54
1870.297	595.28
1871.414	-420.52
1872.532	-887.45
1873.65	230.74
1874.769	163.15
1875.889	-735.9
1877.009	-330.41
1878.13	509.26
1879.252	755.02
1880.374	-486.05
1881.497	-635.55
1882.62	324.94
1883.745	109.91
1884.87	-899.74
1885.995	-836.25
1887.121	247.12
1888.248	91.48
1889.376	-871.07
1890.504	-664.22
1891.632	310.61
1892.762	292.18
1893.892	-643.74
1895.023	-420.52
1896.154	134.48
1897.286	234.83
1898.419	-723.62
1899.552	-584.35
1900.686	558.41
1901.821	496.97
1902.956	-608.93
1904.092	-567.97
1905.229	861.51
1906.366	666.96
1907.504	-799.39
1908.643	-649.89
1909.782	585.04
