Data from led6500K_USB4H112691__4__12-40-42-175.txt Node

Date: Tue Dec 17 12:40:42 CET 2024
User: Etudiants TP
Spectrometer: USB4H11269
Trigger mode: 4
Integration Time (sec): 1.000000E0
Scans to average: 1
Electric dark correction enabled: true
Nonlinearity correction enabled: false
Boxcar width: 0
XAxis mode: Wavelengths
Number of Pixels in Spectrum: 3648
>>>>>Begin Spectral Data<<<<<
286.377	-1706.98
286.631	-1706.98
286.884	-1706.98
287.138	-1604.58
287.391	-1659.88
287.644	-857.07
287.896	-613.37
288.149	719.86
288.401	500.73
288.653	-560.12
288.905	-377.85
289.157	863.22
289.409	338.94
289.661	-467.96
289.912	-775.16
290.163	422.91
290.414	805.88
290.665	-691.19
290.916	-668.66
291.166	588.79
291.417	1125.36
291.667	-664.57
291.917	-252.92
292.167	412.67
292.417	340.99
292.666	-771.06
292.916	-697.33
293.165	478.2
293.414	732.15
293.663	-912.37
293.912	-814.07
294.16	818.16
294.408	709.62
294.657	-652.28
294.905	-390.14
295.153	539.64
295.4	578.55
295.648	-840.69
295.895	-744.44
296.143	152.57
296.39	717.81
296.637	-650.23
296.884	-809.97
297.13	678.9
297.377	906.23
297.623	-599.03
297.869	-427
298.115	791.54
298.361	728.05
298.606	-715.77
298.852	-644.09
299.097	592.89
299.342	912.37
299.587	-365.56
299.832	-566.26
300.077	701.43
300.322	584.7
300.566	-754.68
300.81	-455.67
301.054	642.04
301.298	787.44
301.542	-136.19
301.785	-451.58
302.029	961.52
302.272	773.11
302.515	-779.25
302.758	-558.07
303.001	728.05
303.244	746.48
303.486	-603.13
303.729	-865.27
303.971	1037.3
304.213	787.44
304.455	-943.09
304.696	-369.66
304.938	211.96
305.179	814.07
305.421	-431.1
305.662	-437.24
305.903	355.32
306.143	338.94
306.384	-414.71
306.625	-533.5
306.865	461.82
307.105	359.42
307.345	-463.86
307.585	-537.59
307.825	56.32
308.064	799.73
308.304	-551.93
308.543	-832.5
308.782	476.15
309.021	914.42
309.26	-369.66
309.499	-562.17
309.737	902.13
309.976	740.34
310.214	-771.06
310.452	-635.89
310.69	1160.17
310.928	216.06
311.165	-683
311.403	-639.99
311.64	857.07
311.878	572.41
312.115	-613.37
312.351	-515.06
312.588	463.86
312.825	930.8
313.061	-787.44
313.298	-11.26
313.534	234.49
313.77	848.88
314.006	-549.88
314.241	-701.43
314.477	736.24
314.713	1178.61
314.948	-615.41
315.183	168.96
315.418	1043.44
315.653	590.84
315.888	-713.72
316.122	-310.27
316.357	340.99
316.591	789.49
316.825	-488.44
317.059	-574.46
317.293	1035.25
317.527	451.58
317.76	-617.46
317.994	-498.68
318.227	689.14
318.46	1240.05
318.693	-771.06
318.926	-537.59
319.159	109.57
319.391	531.45
319.624	-855.03
319.856	-599.03
320.088	801.78
320.321	674.81
320.552	-300.03
320.784	-738.29
321.016	822.26
321.247	44.03
321.479	-398.33
321.71	-416.76
321.941	-103.42
322.172	1207.28
322.403	-717.81
322.633	-340.99
322.864	723.96
323.094	220.16
323.325	-78.85
323.555	-678.9
323.785	316.41
324.014	308.22
324.244	-535.54
324.474	-343.03
324.703	914.42
324.933	945.14
325.162	-486.39
325.391	-857.07
325.62	-25.6
325.848	834.55
326.077	-553.98
326.306	-467.96
326.534	756.72
326.762	1053.68
326.99	-529.4
327.218	-267.26
327.446	975.86
327.674	31.74
327.901	-545.78
328.129	-599.03
328.356	863.22
328.583	273.4
328.81	-779.25
329.037	-525.3
329.264	379.9
329.491	830.45
329.717	-484.34
329.944	-652.28
330.17	334.84
330.396	211.96
330.622	-754.68
330.848	-261.12
331.074	535.54
331.299	1354.73
331.525	-689.14
331.75	-599.03
331.975	912.37
332.201	138.24
332.426	-873.46
332.65	-633.85
332.875	-103.42
333.1	474.1
333.324	-762.87
333.549	-783.35
333.773	316.41
333.997	543.74
334.221	-603.13
334.445	-611.32
334.668	553.98
334.892	1127.41
335.116	-404.47
335.339	-633.85
335.562	-3.07
335.785	453.63
336.008	-326.65
336.231	-625.65
336.454	-152.57
336.676	879.6
336.899	-504.82
337.121	-381.95
337.343	74.75
337.566	711.67
337.788	-652.28
338.009	-685.05
338.231	56.32
338.453	478.2
338.674	3279.82
338.896	-414.71
339.117	-56.32
339.338	1018.86
339.559	-822.26
339.78	-660.47
340.001	44.03
340.222	941.04
340.442	-631.8
340.663	-293.88
340.883	820.21
341.103	371.71
341.323	-601.08
341.543	-422.91
341.763	805.88
341.983	441.34
342.202	-703.48
342.422	-740.34
342.641	1143.79
342.861	502.78
343.08	-232.44
343.299	-726
343.518	699.38
343.736	654.33
343.955	-664.57
344.174	-766.96
344.392	867.31
344.61	87.04
344.829	-787.44
345.047	-578.55
345.265	586.74
345.483	986.1
345.7	-666.61
345.918	-187.39
346.136	117.76
346.353	801.78
346.57	-746.48
346.788	-726
347.005	326.65
347.222	-60.42
347.438	-87.04
347.655	-590.84
347.872	89.09
348.088	1145.84
348.305	-406.52
348.521	-633.85
348.737	187.39
348.953	926.71
349.169	-218.11
349.385	-539.64
349.601	490.49
349.817	-82.94
350.032	-279.55
350.248	-295.93
350.463	1283.05
350.678	-275.45
350.893	-672.76
351.108	-738.29
351.323	138.24
351.538	719.86
351.753	-689.14
351.967	-570.36
352.182	769.01
352.396	203.77
352.61	-670.71
352.824	-584.7
353.038	601.08
353.252	842.74
353.466	-513.02
353.68	-560.12
353.894	414.71
354.107	265.21
354.32	-349.18
354.534	-633.85
354.747	703.48
354.96	-48.13
355.173	-377.85
355.386	-822.26
355.599	455.67
355.811	252.92
356.024	-783.35
356.236	-461.82
356.449	158.72
356.661	289.79
356.873	-816.12
357.085	-893.94
357.297	683
357.509	650.23
357.721	-564.22
357.933	-678.9
358.144	244.73
358.356	193.53
358.567	-451.58
358.778	-721.91
358.989	936.95
359.2	244.73
359.411	-553.98
359.622	-439.29
359.833	568.31
360.044	232.44
360.254	-609.27
360.465	-756.72
360.675	486.39
360.885	379.9
361.096	-746.48
361.306	-508.92
361.516	259.07
361.726	470.01
361.935	-842.74
362.145	-517.11
362.355	506.87
362.564	470.01
362.774	-764.92
362.983	-820.21
363.192	969.71
363.401	177.15
363.61	-664.57
363.819	-349.18
364.028	412.67
364.237	928.75
364.445	-592.89
364.654	-355.32
364.862	414.71
365.071	154.62
365.279	-390.14
365.487	-695.29
365.695	568.31
365.903	359.42
366.111	-701.43
366.319	-594.93
366.527	633.85
366.734	359.42
366.942	-472.06
367.149	-832.5
367.357	-474.1
367.564	1020.91
367.771	-529.4
367.978	-738.29
368.185	183.29
368.392	363.51
368.599	-289.79
368.806	-627.7
369.013	-95.23
369.219	551.93
369.426	-758.77
369.632	-369.66
369.838	1096.69
370.044	568.31
370.251	-496.63
370.457	-529.4
370.663	922.61
370.868	388.09
371.074	-574.46
371.28	-685.05
371.485	-119.81
371.691	689.14
371.896	-699.38
372.102	-746.48
372.307	1025.01
372.512	852.98
372.717	-715.77
372.922	-345.08
373.127	37.89
373.332	379.9
373.537	-508.92
373.741	-535.54
373.946	474.1
374.151	297.98
374.355	-697.33
374.559	-553.98
374.764	246.78
374.968	-263.16
375.172	-678.9
375.376	-259.07
375.58	437.24
375.784	21.5
375.987	-807.92
376.191	-615.41
376.395	101.37
376.598	220.16
376.802	-699.38
377.005	-306.17
377.208	285.69
377.412	72.7
377.615	-807.92
377.818	-627.7
378.021	214.01
378.224	-5.12
378.426	-664.57
378.629	-814.07
378.832	756.72
379.034	707.57
379.237	-938.99
379.439	-859.12
379.642	652.28
379.844	519.16
380.046	-920.56
380.248	-758.77
380.45	-121.85
380.652	-240.64
380.854	-619.51
381.056	-660.47
381.258	338.94
381.459	445.43
381.661	-742.39
381.862	-470.01
382.064	-68.61
382.265	257.02
382.467	-726
382.668	-527.35
382.869	797.68
383.07	386.04
383.271	-560.12
383.472	-617.46
383.673	619.51
383.874	386.04
384.074	-529.4
384.275	-762.87
384.476	594.93
384.676	1149.93
384.876	-769.01
385.077	-627.7
385.277	715.77
385.477	875.51
385.677	-707.57
385.878	-533.5
386.078	297.98
386.278	340.99
386.477	-263.16
386.677	-259.07
386.877	496.63
387.077	625.65
387.276	-320.51
387.476	-574.46
387.675	379.9
387.875	1027.06
388.074	-672.76
388.273	-574.46
388.472	797.68
388.671	-74.75
388.87	-691.19
389.069	-222.2
389.268	-201.72
389.467	13.31
389.666	-812.02
389.865	-222.2
390.063	599.03
390.262	766.96
390.461	-611.32
390.659	-734.2
390.857	605.17
391.056	670.71
391.254	-726
391.452	-586.74
391.65	721.91
391.849	486.39
392.047	-482.3
392.245	-257.02
392.442	314.36
392.64	510.97
392.838	-355.32
393.036	-535.54
393.233	261.12
393.431	250.88
393.629	-869.36
393.826	-541.69
394.023	193.53
394.221	-148.48
394.418	-508.92
394.615	-230.4
394.812	-84.99
395.01	723.96
395.207	-558.07
395.404	-750.58
395.601	924.66
395.797	390.14
395.994	-691.19
396.191	-553.98
396.388	111.61
396.584	621.56
396.781	-388.09
396.977	-101.37
397.174	605.17
397.37	-46.08
397.567	-412.67
397.763	-642.04
397.959	289.79
398.155	205.82
398.352	-496.63
398.548	-232.44
398.744	504.82
398.94	470.01
399.136	-799.73
399.331	-324.6
399.527	371.71
399.723	527.35
399.919	-463.86
400.114	-570.36
400.31	146.43
400.505	433.15
400.701	-592.89
400.896	-592.89
401.092	105.47
401.287	320.51
401.482	-736.24
401.678	-416.76
401.873	609.27
402.068	666.61
402.263	-431.1
402.458	-537.59
402.653	109.57
402.848	545.78
403.043	-406.52
403.237	-723.96
403.432	82.94
403.627	-267.26
403.822	-807.92
404.016	-701.43
404.211	160.77
404.405	594.93
404.6	-181.25
404.794	-353.27
404.989	500.73
405.183	132.09
405.377	-353.27
405.571	-168.96
405.766	490.49
405.96	402.43
406.154	-566.26
406.348	-470.01
406.542	502.78
406.736	486.39
406.93	-594.93
407.124	-455.67
407.318	267.26
407.511	312.32
407.705	-351.23
407.899	-578.55
408.092	396.28
408.286	295.93
408.48	-736.24
408.673	-660.47
408.867	89.09
409.06	363.51
409.253	-326.65
409.447	-447.48
409.64	601.08
409.833	533.5
410.026	-369.66
410.22	-416.76
410.413	570.36
410.606	357.37
410.799	-766.96
410.992	-545.78
411.185	383.99
411.378	961.52
411.571	-525.3
411.764	-467.96
411.956	482.3
412.149	338.94
412.342	-320.51
412.534	-414.71
412.727	617.46
412.92	445.43
413.112	-437.24
413.305	-199.68
413.497	832.5
413.69	619.51
413.882	-422.91
414.075	-316.41
414.267	431.1
414.459	334.84
414.652	-541.69
414.844	-551.93
415.036	402.43
415.228	734.2
415.42	-322.56
415.612	-576.5
415.804	842.74
415.997	447.48
416.188	-254.97
416.38	-332.79
416.572	70.65
416.764	646.13
416.956	-586.74
417.148	-648.18
417.34	277.5
417.531	-101.37
417.723	-558.07
417.915	-463.86
418.107	107.52
418.298	535.54
418.49	-496.63
418.681	-209.92
418.873	756.72
419.064	369.66
419.256	-398.33
419.447	-537.59
419.639	527.35
419.83	797.68
420.021	-371.71
420.213	-556.02
420.404	326.65
420.595	447.48
420.786	-273.4
420.978	-308.22
421.169	625.65
421.36	197.63
421.551	-513.02
421.742	-601.08
421.933	803.83
422.124	551.93
422.315	-494.58
422.506	-480.25
422.697	560.12
422.888	209.92
423.079	-138.24
423.27	-496.63
423.461	308.22
423.652	185.34
423.842	-586.74
424.033	-478.2
424.224	472.06
424.415	914.42
424.605	-447.48
424.796	-449.53
424.987	560.12
425.177	414.71
425.368	-750.58
425.558	-650.23
425.749	242.68
425.939	209.92
426.13	-136.19
426.32	-324.6
426.511	76.8
426.701	154.62
426.892	-480.25
427.082	-519.16
427.272	105.47
427.463	383.99
427.653	-328.7
427.843	-291.84
428.034	867.31
428.224	494.58
428.414	-615.41
428.604	-437.24
428.795	388.09
428.985	537.59
429.175	-140.29
429.365	-230.4
429.555	429.05
429.745	302.08
429.935	-406.52
430.126	-306.17
430.316	676.85
430.506	721.91
430.696	-439.29
430.886	-152.57
431.076	478.2
431.266	201.72
431.456	-222.2
431.645	-513.02
431.835	269.31
432.025	416.76
432.215	-594.93
432.405	-230.4
432.595	472.06
432.785	347.13
432.975	-580.6
433.164	-734.2
433.354	95.23
433.544	613.37
433.734	-680.95
433.923	-373.75
434.113	195.58
434.303	293.88
434.493	-359.42
434.682	-486.39
434.872	558.07
435.062	-78.85
435.251	-435.19
435.441	-562.17
435.631	809.97
435.82	226.3
436.01	-642.04
436.2	-363.51
436.389	130.05
436.579	842.74
436.768	-130.05
436.958	-144.38
437.147	367.61
437.337	574.46
437.527	-242.68
437.716	-525.3
437.906	740.34
438.095	306.17
438.285	-447.48
438.474	-291.84
438.664	633.85
438.853	551.93
439.043	-267.26
439.232	-578.55
439.422	445.43
439.611	510.97
439.8	-545.78
439.99	-195.58
440.179	492.54
440.369	830.45
440.558	-635.89
440.748	-435.19
440.937	201.72
441.126	13.31
441.316	-273.4
441.505	-529.4
441.695	646.13
441.884	986.1
442.073	-398.33
442.263	-545.78
442.452	248.83
442.642	605.17
442.831	-510.97
443.02	-140.29
443.21	789.49
443.399	1256.43
443.588	-340.99
443.778	-230.4
443.967	977.91
444.156	547.83
444.346	-576.5
444.535	-578.55
444.725	947.19
444.914	508.92
445.103	-527.35
445.293	-218.11
445.482	961.52
445.671	611.32
445.861	-238.59
446.05	-140.29
446.239	678.9
446.429	257.02
446.618	-394.23
446.807	5.12
446.997	664.57
447.186	627.7
447.376	-310.27
447.565	-119.81
447.754	908.27
447.944	988.14
448.133	-197.63
448.322	-467.96
448.512	420.86
448.701	1149.93
448.891	-224.25
449.08	-107.52
449.269	11.26
449.459	351.23
449.648	-265.21
449.838	-340.99
450.027	470.01
450.217	312.32
450.406	-420.86
450.595	-125.95
450.785	822.26
450.974	709.62
451.164	-402.43
451.353	-201.72
451.543	758.77
451.732	961.52
451.922	-201.72
452.111	-265.21
452.301	134.14
452.49	306.17
452.68	-418.81
452.869	195.58
453.059	375.8
453.249	900.08
453.438	-594.93
453.628	-146.43
453.817	586.74
454.007	596.98
454.197	-533.5
454.386	-166.91
454.576	869.36
454.765	822.26
454.955	-177.15
455.145	-361.47
455.334	535.54
455.524	240.64
455.714	-203.77
455.904	-410.62
456.093	1324.01
456.283	670.71
456.473	-365.56
456.663	-410.62
456.852	617.46
457.042	740.34
457.232	-199.68
457.422	322.56
457.612	642.04
457.802	982
457.991	-547.83
458.181	-369.66
458.371	781.3
458.561	752.63
458.751	-324.6
458.941	-498.68
459.131	420.86
459.321	400.38
459.511	-91.13
459.701	-273.4
459.891	586.74
460.081	209.92
460.271	-259.07
460.461	-410.62
460.651	1272.81
460.841	1135.6
461.032	-373.75
461.222	-273.4
461.412	541.69
461.602	1362.92
461.792	-601.08
461.983	-529.4
462.173	543.74
462.363	1137.65
462.554	-300.03
462.744	-402.43
462.934	799.73
463.125	709.62
463.315	-455.67
463.505	-218.11
463.696	809.97
463.886	408.57
464.077	-441.34
464.267	-449.53
464.458	1027.06
464.648	171.01
464.839	-199.68
465.03	-377.85
465.22	267.26
465.411	754.68
465.601	-381.95
465.792	-427
465.983	371.71
466.174	787.44
466.364	-635.89
466.555	-318.46
466.746	777.2
466.937	381.95
467.128	-427
467.319	-328.7
467.51	949.23
467.701	1506.28
467.891	-326.65
468.082	-447.48
468.274	568.31
468.465	-15.36
468.656	-252.92
468.847	-601.08
469.038	183.29
469.229	267.26
469.42	-291.84
469.612	-488.44
469.803	711.67
469.994	633.85
470.185	-304.12
470.377	-586.74
470.568	482.3
470.76	627.7
470.951	-392.19
471.142	-142.33
471.334	736.24
471.526	588.79
471.717	-166.91
471.909	-603.13
472.1	457.72
472.292	584.7
472.484	-533.5
472.675	-521.21
472.867	486.39
473.059	943.09
473.251	-306.17
473.443	-422.91
473.635	584.7
473.826	773.11
474.018	-437.24
474.21	-168.96
474.402	642.04
474.595	920.56
474.787	-406.52
474.979	-138.24
475.171	345.08
475.363	37.89
475.555	-654.33
475.748	-416.76
475.94	646.13
476.132	343.03
476.325	-492.54
476.517	-27.65
476.71	1356.78
476.902	308.22
477.095	-527.35
477.287	-148.48
477.48	781.3
477.673	584.7
477.865	-340.99
478.058	-463.86
478.251	801.78
478.444	1022.96
478.636	-349.18
478.829	-427
479.022	658.42
479.215	844.79
479.408	-259.07
479.601	140.29
479.794	248.83
479.988	441.34
480.181	-130.05
480.374	-316.41
480.567	744.44
480.76	1068.02
480.954	-287.74
481.147	-656.37
481.341	404.47
481.534	406.52
481.728	-187.39
481.921	-33.79
482.115	777.2
482.308	1053.68
482.502	-361.47
482.696	-330.75
482.89	1467.37
483.084	773.11
483.277	-263.16
483.471	-181.25
483.665	1070.06
483.859	1782.76
484.053	-607.22
484.247	-453.63
484.442	635.89
484.636	674.81
484.83	-429.05
485.024	-179.2
485.219	515.06
485.413	412.67
485.608	-287.74
485.802	-72.7
485.997	990.19
486.191	576.5
486.386	-314.36
486.58	-171.01
486.775	752.63
486.97	1027.06
487.165	-289.79
487.36	-238.59
487.555	707.57
487.75	541.69
487.945	-168.96
488.14	-447.48
488.335	359.42
488.53	396.28
488.725	-390.14
488.92	-168.96
489.116	1057.78
489.311	707.57
489.507	-412.67
489.702	181.25
489.898	1162.22
490.093	427
490.289	93.18
490.485	-37.89
490.68	199.68
490.876	1194.99
491.072	-357.37
491.268	-281.6
491.464	1055.73
491.66	865.27
491.856	-164.86
492.052	236.54
492.248	1076.21
492.445	785.4
492.641	-320.51
492.837	-293.88
493.034	1119.21
493.23	1338.35
493.427	289.79
493.623	-162.81
493.82	863.22
494.017	1260.52
494.214	-205.82
494.41	-232.44
494.607	916.47
494.804	424.95
495.001	-46.08
495.198	23.55
495.395	1061.87
495.593	1020.91
495.79	-246.78
495.987	-267.26
496.184	183.29
496.382	865.27
496.579	-234.49
496.777	-128
496.974	1530.86
497.172	949.23
497.37	-58.37
497.568	-267.26
497.766	1600.49
497.963	859.12
498.161	-121.85
498.359	44.03
498.558	1487.85
498.756	1176.56
498.954	-250.88
499.152	283.64
499.351	1137.65
499.549	1014.77
499.747	27.65
499.946	-103.42
500.145	672.76
500.343	881.65
500.542	-95.23
500.741	17.41
500.94	1125.36
501.139	1235.95
501.338	-66.56
501.537	275.45
501.736	1496.04
501.935	1199.09
502.134	-134.14
502.334	-3.07
502.533	1319.92
502.733	1051.63
502.932	109.57
503.132	62.46
503.331	840.69
503.531	1321.96
503.731	89.09
503.931	29.7
504.131	742.39
504.331	1389.55
504.531	54.27
504.731	207.87
504.931	1059.82
505.132	1041.39
505.332	117.76
505.532	1.02
505.733	1170.41
505.933	1594.34
506.134	183.29
506.335	-21.5
506.536	773.11
506.736	1446.89
506.937	93.18
507.138	-99.33
507.34	1821.67
507.541	1158.13
507.742	375.8
507.943	-46.08
508.145	1100.78
508.346	584.7
508.548	-158.72
508.749	101.37
508.951	639.99
509.153	941.04
509.354	58.37
509.556	195.58
509.758	1381.35
509.96	574.46
510.163	295.93
510.365	316.41
510.567	734.2
510.769	932.85
510.972	125.95
511.174	437.24
511.377	697.33
511.58	2067.42
511.782	3.07
511.985	27.65
512.188	1752.04
512.391	1321.96
512.594	-82.94
512.797	357.37
513.001	1461.23
513.204	1674.21
513.407	314.36
513.611	125.95
513.814	1293.29
514.018	1496.04
514.222	285.69
514.425	146.43
514.629	1334.25
514.833	1178.61
515.037	345.08
515.241	109.57
515.445	961.52
515.65	797.68
515.854	201.72
516.059	216.06
516.263	1399.79
516.468	1354.73
516.672	187.39
516.877	275.45
517.082	789.49
517.287	1266.67
517.492	541.69
517.697	207.87
517.902	1293.29
518.107	951.28
518.313	375.8
518.518	109.57
518.724	1653.73
518.929	1248.24
519.135	396.28
519.341	11.26
519.547	1229.81
519.753	1364.97
519.959	175.1
520.165	181.25
520.371	1473.51
520.577	1893.35
520.784	140.29
520.99	338.94
521.197	1387.5
521.404	1278.96
521.61	-46.08
521.817	29.7
522.024	1743.85
522.231	1102.83
522.438	-101.37
522.645	764.92
522.853	1068.02
523.06	1268.72
523.268	285.69
523.475	324.6
523.683	1297.39
523.891	1346.54
524.098	-15.36
524.306	351.23
524.514	1182.7
524.722	1203.18
524.931	383.99
525.139	265.21
525.347	748.53
525.556	1182.7
525.764	408.57
525.973	650.23
526.182	1321.96
526.391	984.05
526.6	293.88
526.809	437.24
527.018	1321.96
527.227	1444.84
527.436	355.32
527.646	273.4
527.855	1420.27
528.065	1086.45
528.275	259.07
528.484	158.72
528.694	1356.78
528.904	1453.03
529.114	177.15
529.325	338.94
529.535	777.2
529.745	1395.69
529.956	201.72
530.166	248.83
530.377	1291.24
530.588	1717.22
530.799	564.22
531.01	248.83
531.221	1625.06
531.432	1678.31
531.643	449.53
531.855	850.93
532.066	1575.91
532.278	1274.86
532.489	431.1
532.701	269.31
532.913	1639.4
533.125	1444.84
533.337	93.18
533.549	175.1
533.762	1524.71
533.974	879.6
534.186	78.85
534.399	457.72
534.612	1602.54
534.825	1346.54
535.037	361.47
535.25	523.26
535.464	1086.45
535.677	1764.33
535.89	138.24
536.104	531.45
536.317	1305.58
536.531	1321.96
536.744	695.29
536.958	470.01
537.172	1457.13
537.386	1168.37
537.6	470.01
537.815	404.47
538.029	1608.68
538.244	1733.61
538.458	144.38
538.673	259.07
538.888	1543.14
539.103	1866.72
539.318	670.71
539.533	261.12
539.748	1252.33
539.963	855.03
540.179	123.9
540.394	103.42
540.61	898.03
540.826	1127.41
541.042	203.77
541.258	181.25
541.474	1897.44
541.69	1321.96
541.906	412.67
542.123	359.42
542.339	1399.79
542.556	1143.79
542.773	355.32
542.99	437.24
543.207	1172.46
543.424	1010.67
543.641	459.77
543.858	723.96
544.076	1092.59
544.293	984.05
544.511	265.21
544.729	287.74
544.947	1127.41
545.165	1264.62
545.383	302.08
545.601	363.51
545.819	1412.07
546.038	1182.7
546.256	615.41
546.475	289.79
546.694	2202.59
546.913	1704.93
547.132	871.41
547.351	447.48
547.57	977.91
547.79	1068.02
548.009	439.29
548.229	338.94
548.449	994.29
548.668	1641.45
548.888	521.21
549.109	404.47
549.329	1694.69
549.549	1723.37
549.77	467.96
549.99	535.54
550.211	1606.63
550.432	1971.17
550.653	322.56
550.874	537.59
551.095	1981.41
551.316	1211.37
551.538	404.47
551.759	519.16
551.981	1360.88
552.203	1625.06
552.424	492.54
552.646	748.53
552.869	1289.2
553.091	1416.17
553.313	726
553.536	547.83
553.758	1690.6
553.981	1354.73
554.204	498.68
554.427	615.41
554.65	1670.12
554.873	906.23
555.097	314.36
555.32	478.2
555.544	1936.35
555.768	1686.5
555.992	556.02
556.216	398.33
556.44	1143.79
556.664	1616.87
556.888	990.19
557.113	388.09
557.337	2184.16
557.562	2057.18
557.787	441.34
558.012	629.75
558.237	1428.46
558.462	1362.92
558.688	822.26
558.913	683
559.139	1100.78
559.365	1776.61
559.591	478.2
559.817	635.89
560.043	1784.8
560.269	2145.25
560.496	1051.63
560.722	674.81
560.949	2092
561.176	1180.65
561.403	633.85
561.63	863.22
561.857	1194.99
562.084	1231.85
562.312	506.87
562.539	889.84
562.767	2161.63
562.995	1477.61
563.223	707.57
563.451	906.23
563.679	1498.09
563.908	1666.02
564.136	785.4
564.365	1010.67
564.594	1045.49
564.823	2773.97
565.052	830.45
565.281	519.16
565.51	1696.74
565.74	1508.33
565.969	596.98
566.199	914.42
566.429	1946.59
566.659	1874.92
566.889	805.88
567.119	797.68
567.35	2171.87
567.58	2128.86
567.811	1006.58
568.042	826.36
568.273	1590.25
568.504	1995.75
568.735	910.32
568.966	986.1
569.198	1706.98
569.43	2249.69
569.661	965.62
569.893	1395.69
570.125	2407.39
570.358	2225.12
570.59	1020.91
570.822	1002.48
571.055	2096.1
571.288	2374.62
571.521	965.62
571.754	1043.44
571.987	2579.42
572.22	2063.33
572.454	1256.43
572.687	1158.13
572.921	1569.77
573.155	2040.8
573.389	1653.73
573.623	1453.03
573.858	1965.03
574.092	2436.06
574.327	1383.4
574.561	1706.98
574.796	2024.42
575.031	2362.33
575.266	1194.99
575.502	1391.59
575.737	2804.69
575.973	2157.54
576.209	1539.05
576.445	1547.24
576.681	2092
576.917	2374.62
577.153	1410.03
577.39	1586.15
577.626	2505.69
577.863	2563.03
578.1	1420.27
578.337	1729.51
578.574	2520.03
578.812	2876.37
579.049	1844.2
579.287	1702.89
579.525	2878.42
579.763	2833.36
580.001	1629.16
580.239	1752.04
580.478	3312.59
580.716	2876.37
580.955	1993.7
581.194	2118.62
581.433	3290.06
581.672	2878.42
581.911	2010.08
582.151	2126.82
582.39	2927.57
582.63	3451.85
582.87	2163.68
583.11	2165.73
583.35	2757.59
583.591	3107.79
583.831	2624.47
584.072	2866.13
584.313	3562.44
584.554	3402.7
584.795	2651.1
585.036	2749.4
585.277	4264.89
585.519	4008.9
585.761	2640.86
586.003	2440.15
586.245	3871.68
586.487	4385.73
586.729	3111.89
586.972	2841.56
587.215	4813.75
587.457	3513.29
587.7	3263.44
587.944	3218.38
588.187	3988.42
588.43	3980.23
588.674	3380.17
588.918	3226.57
589.162	4774.84
589.406	4197.31
589.65	3277.77
589.894	4283.33
590.139	4715.45
590.384	4854.71
590.629	3656.65
590.874	3857.35
591.119	4338.62
591.364	5065.65
591.61	3892.16
591.855	3994.56
592.101	5700.52
592.347	5290.93
592.593	4381.63
592.84	4678.58
593.086	5825.45
593.333	5079.99
593.58	4410.3
593.827	4434.88
594.074	5536.68
594.321	5526.44
594.568	4621.24
594.816	4508.6
595.064	5958.57
595.312	5755.82
595.56	5043.12
595.808	5254.06
596.057	6409.12
596.305	6011.81
596.554	5065.65
596.803	5456.81
597.052	6863.77
597.301	6900.63
597.551	5272.5
597.8	6087.59
598.05	7019.41
598.3	6615.96
598.55	5731.24
598.8	5946.28
599.051	6681.5
599.301	6802.33
599.552	5909.41
599.803	6585.24
600.054	7246.74
600.305	7453.58
600.556	6728.6
600.808	6527.9
601.06	7146.39
601.312	7775.11
601.564	6708.12
601.816	6667.16
602.068	8321.92
602.321	8186.76
602.574	7056.28
602.827	6575
603.08	7830.41
603.333	8240
603.587	7277.46
603.84	7508.88
604.094	8672.12
604.348	8190.85
604.602	7355.28
604.856	7771.02
605.111	8768.38
605.365	8948.6
605.62	7768.97
605.875	7881.61
606.13	8872.82
606.386	8887.16
606.641	8098.69
606.897	8158.08
607.153	9087.86
607.409	9593.71
607.665	8143.75
607.921	8305.54
608.178	9571.18
608.435	9679.72
608.692	8420.22
608.949	8778.62
609.206	10099.56
609.463	9827.18
609.721	8993.65
609.979	9094.01
610.237	9960.3
610.495	10476.38
610.753	9702.25
611.012	9571.18
611.27	10681.18
611.529	10808.16
611.788	9485.17
612.047	9573.23
612.307	10281.83
612.566	11004.76
612.826	9636.72
613.086	9786.22
613.346	10214.24
613.606	11289.43
613.867	9923.43
614.127	10185.57
614.388	10521.44
614.649	11682.64
614.91	10038.12
615.172	10486.62
615.433	10822.49
615.695	11133.78
615.957	10586.97
616.219	10449.76
616.481	11676.49
616.743	11303.76
617.006	10095.46
617.269	10685.28
617.532	11561.81
617.795	11615.05
618.058	10636.13
618.322	10922.84
618.586	11932.49
618.849	11420.5
619.114	11209.56
619.378	10781.53
619.642	11979.59
619.907	11985.74
620.172	10904.41
620.437	11111.25
620.702	11967.31
620.967	11733.84
621.233	10988.38
621.499	10965.85
621.765	12147.53
622.031	12407.62
622.297	11049.82
622.564	11027.29
622.83	12155.72
623.097	12831.55
623.364	11201.37
623.631	11684.69
623.899	12438.34
624.166	12495.68
624.434	11010.9
624.702	11125.59
624.97	12503.87
625.239	11981.64
625.507	11483.98
625.776	11557.71
626.045	12204.87
626.314	12454.72
626.584	11430.74
626.853	11260.76
627.123	12211.01
627.393	11782.99
627.663	11248.47
627.933	11379.54
628.204	12544.83
628.474	12647.23
628.745	11238.23
629.016	11483.98
629.287	12237.64
629.559	12118.86
629.83	11184.98
630.102	11522.9
630.374	11883.34
630.646	12882.75
630.919	11522.9
631.191	11625.29
631.464	12168.01
631.737	11686.73
632.01	11242.32
632.284	11119.45
632.557	12704.57
632.831	12448.58
633.105	11146.07
633.379	11365.2
633.654	11795.28
633.928	12393.28
634.203	11408.21
634.478	10822.49
634.753	12485.44
635.028	12163.91
635.304	11332.44
635.58	11053.91
635.856	12241.73
636.132	12012.36
636.408	10996.57
636.685	11121.49
636.961	12141.38
637.238	11909.96
637.515	10926.94
637.793	10802.01
638.07	12227.4
638.348	11834.19
638.626	11182.93
638.904	11109.21
639.182	11426.64
639.461	11242.32
639.74	10926.94
640.019	10818.39
640.298	10900.31
640.577	11672.4
640.857	10699.61
641.136	10769.24
641.416	11203.41
641.696	12305.22
641.977	10703.71
642.257	10902.36
642.538	11750.22
642.819	12038.98
643.1	10486.62
643.382	10361.7
643.663	11604.81
643.945	11522.9
644.227	10634.08
644.509	10185.57
644.792	11721.55
645.074	11299.67
645.357	10111.85
645.64	10103.65
645.923	11232.08
646.207	11275.09
646.49	10273.64
646.774	10011.5
647.058	10820.44
647.342	11254.61
647.627	9808.75
647.911	9722.73
648.196	11434.83
648.481	11254.61
648.767	9888.62
649.052	9589.61
649.338	10443.62
649.624	10449.76
649.91	9608.05
650.196	9634.67
650.483	10740.57
650.77	10847.07
651.057	9878.38
651.344	9806.7
651.631	10244.96
651.919	10290.02
652.207	9474.93
652.495	9472.88
652.783	10677.09
653.071	10335.07
653.36	9048.95
653.649	9233.27
653.938	10173.28
654.227	10525.54
654.517	9341.81
654.806	9087.86
655.096	9460.59
655.387	10373.99
655.677	9216.88
655.968	9046.9
656.258	9554.8
656.549	10249.06
656.841	9063.29
657.132	8719.23
657.424	9689.96
657.716	9984.87
658.008	8612.73
658.3	8637.31
658.592	9374.58
658.885	9866.09
659.178	8661.88
659.471	8301.44
659.765	9075.57
660.058	9470.83
660.352	8366.98
660.646	8125.32
660.94	10005.35
661.235	9436.02
661.53	8665.98
661.824	7744.39
662.12	9196.4
662.415	8672.12
662.711	8121.22
663.006	8293.25
663.302	8825.72
663.599	8489.85
663.895	7797.64
664.192	8037.25
664.489	9380.72
664.786	9069.43
665.083	7568.27
665.381	7676.81
665.678	8512.38
665.976	8690.56
666.275	7342.99
666.573	7787.4
666.872	8242.05
667.171	8584.06
667.47	7336.85
667.769	7447.44
668.069	8651.64
668.368	8641.4
668.668	7084.95
668.969	7142.29
669.269	8086.4
669.57	7936.9
669.871	7209.87
670.172	7218.07
670.473	8526.72
670.775	8573.82
671.077	6888.34
671.379	7359.38
671.681	8235.91
671.983	7897.99
672.286	6628.25
672.589	6818.71
672.892	7875.46
673.196	7881.61
673.499	6658.97
673.803	6697.88
674.107	7771.02
674.411	7631.76
674.716	6796.18
675.021	6677.4
675.326	7402.38
675.631	7805.83
675.936	6146.98
676.242	6448.03
676.548	7236.5
676.854	7863.18
677.16	5946.28
677.467	6294.43
677.774	7299.98
678.081	7195.54
678.388	6486.94
678.696	6335.39
679.004	7490.45
679.312	7531.41
679.62	6075.3
679.928	6261.66
680.237	7310.22
680.546	6482.85
680.855	5919.65
681.164	5907.37
681.474	6869.91
681.784	6814.62
682.094	5866.41
682.404	5516.2
682.715	7039.89
683.026	6417.31
683.337	5372.85
683.648	5874.6
683.959	7054.23
684.271	6787.99
684.583	5360.56
684.895	5168.05
685.208	6507.42
685.52	6556.57
685.833	5710.76
686.146	5227.44
686.46	6931.35
686.773	6372.25
687.087	5378.99
687.401	5188.53
687.716	6319.01
688.03	6327.2
688.345	4934.58
688.66	5213.1
688.975	6435.74
689.291	6230.94
689.607	5573.55
689.923	4971.44
690.239	5837.73
690.555	6220.71
690.872	5071.79
691.189	4586.43
691.506	5864.36
691.824	6052.77
692.142	4701.11
692.459	4664.25
692.778	5475.24
693.096	5970.85
693.415	5016.5
693.734	4811.7
694.053	5573.55
694.372	5252.02
694.692	4412.35
695.012	4516.8
695.332	5053.36
695.652	5309.36
695.973	4547.51
696.294	4590.52
696.615	5239.73
696.936	5749.67
697.258	4002.75
697.579	4373.44
697.902	4856.76
698.224	5163.95
698.546	4058.05
698.869	3898.31
699.192	4877.24
699.516	5422
699.839	3945.41
700.163	4133.82
700.487	4789.17
700.811	5532.59
701.136	3716.04
701.461	4037.57
701.786	4969.4
702.111	5606.31
702.436	3619.78
702.762	4017.09
703.088	4928.44
703.415	5430.19
703.741	4027.33
704.068	3744.71
704.395	4570.04
704.722	4985.78
705.05	3693.51
705.377	3732.42
705.705	4680.63
706.034	4543.42
706.362	3369.93
706.691	3339.21
707.02	4776.89
707.349	4459.45
707.679	3519.43
708.009	3263.44
708.339	4617.15
708.669	4314.05
709	3374.03
709.33	3347.4
709.661	4412.35
709.993	4189.12
710.324	3525.58
710.656	3263.44
710.988	4281.28
711.321	4477.88
711.653	2935.76
711.986	3197.9
712.319	3615.69
712.652	4348.86
712.986	3312.59
713.32	3109.84
713.654	4412.35
713.988	4475.84
714.323	3052.5
714.658	3054.55
714.993	3863.49
715.328	3910.6
715.664	3011.54
716	3199.95
716.336	4471.74
716.673	3603.4
717.009	3142.61
717.346	3062.74
717.683	4246.46
718.021	3668.94
718.359	2745.3
718.697	2968.53
719.035	3650.5
719.373	3419.08
719.712	2896.85
720.051	2558.94
720.39	4010.95
720.73	3599.31
721.07	2751.45
721.41	2620.38
721.75	3926.98
722.091	3689.42
722.432	2507.74
722.773	2884.56
723.114	3458
723.456	3515.34
723.798	2360.28
724.14	2468.83
724.482	3206.1
724.825	3482.57
725.168	2724.82
725.511	2350.04
725.855	3519.43
726.198	3103.7
726.542	2243.55
726.887	2667.48
727.231	3716.04
727.576	3017.68
727.921	2339.8
728.266	2194.4
728.612	3290.06
728.958	3410.89
729.304	2284.51
729.651	2630.62
729.997	2954.19
730.344	3136.46
730.691	2022.37
731.039	2329.56
731.387	3048.4
731.735	2849.75
732.083	2206.69
732.431	2333.66
732.78	2859.99
733.129	2135.01
733.479	1887.2
733.828	2165.73
734.178	2720.73
734.528	2542.55
734.879	2137.06
735.23	1870.82
735.581	3064.79
735.932	2692.05
736.283	1919.97
736.635	1762.28
736.987	3181.52
737.34	3118.03
737.692	1842.15
738.045	1698.79
738.398	2845.65
738.752	2911.19
739.105	1618.92
739.459	2069.47
739.814	2941.91
740.168	2925.52
740.523	1580.01
740.878	2005.99
741.233	2632.66
741.589	2941.91
741.945	1600.49
742.301	1706.98
742.657	2978.77
743.014	2446.3
743.371	1580.01
743.728	2165.73
744.086	2454.49
744.444	2464.73
744.802	1395.69
745.16	1528.81
745.519	2651.1
745.878	2249.69
746.237	1364.97
746.597	1649.64
746.956	2782.17
747.316	2329.56
747.677	1242.09
748.037	1518.57
748.398	2391
748.759	2534.36
749.121	1711.08
749.482	1706.98
749.844	2067.42
750.207	1907.68
750.569	965.62
750.932	1432.55
751.295	2943.96
751.659	2397.15
752.022	1242.09
752.386	1776.61
752.751	2231.26
753.115	1758.18
753.48	1315.82
753.845	1348.59
754.21	2145.25
754.576	1969.12
754.942	1031.15
755.308	1338.35
755.675	1788.9
756.041	2546.65
756.409	920.56
756.776	1362.92
757.144	2716.63
757.511	2243.55
757.88	1027.06
758.248	816.12
758.617	1479.66
758.986	2141.15
759.355	1446.89
759.725	1108.98
760.095	1608.68
760.465	2309.08
760.836	943.09
761.206	1092.59
761.577	2296.8
761.949	1625.06
762.32	1172.46
762.692	871.41
763.065	1698.79
763.437	1586.15
763.81	742.39
764.183	1088.5
764.556	2436.06
764.93	1760.23
765.304	1240.05
765.678	1065.97
766.053	1749.99
766.428	1901.54
766.803	625.65
767.178	728.05
767.554	1223.66
767.93	1520.62
768.306	678.9
768.683	687.09
769.06	2149.34
769.437	1659.88
769.814	537.59
770.192	543.74
770.57	1582.06
770.948	2280.41
771.327	801.78
771.706	664.57
772.085	1758.18
772.464	2036.7
772.844	744.44
773.224	533.5
773.605	1227.76
773.985	1428.46
774.366	850.93
774.748	1006.58
775.129	1944.55
775.511	1717.22
775.893	590.84
776.276	650.23
776.658	2032.61
777.041	1649.64
777.425	437.24
777.808	594.93
778.192	1424.36
778.576	1985.51
778.961	340.99
779.346	523.26
779.731	1606.63
780.116	961.52
780.502	572.41
780.888	633.85
781.274	1403.88
781.661	1174.51
782.048	369.66
782.435	379.9
782.823	1362.92
783.21	1528.81
783.598	474.1
783.987	539.64
784.376	1764.33
784.765	1092.59
785.154	551.93
785.544	400.38
785.933	1674.21
786.324	1092.59
786.714	605.17
787.105	285.69
787.496	1455.08
787.888	1158.13
788.279	310.27
788.671	265.21
789.064	1219.57
789.456	1539.05
789.849	228.35
790.242	123.9
790.636	977.91
791.03	1489.9
791.424	142.33
791.818	1813.48
792.213	1577.96
792.608	1311.72
793.004	480.25
793.399	52.22
793.795	1231.85
794.192	1141.74
794.588	244.73
794.985	-17.41
795.382	1256.43
795.78	1180.65
796.178	373.75
796.576	123.9
796.974	1717.22
797.373	1285.1
797.772	175.1
798.172	111.61
798.571	1074.16
798.971	1418.22
799.372	183.29
799.772	271.36
800.173	1498.09
800.574	1154.03
800.976	183.29
801.378	-78.85
801.78	773.11
802.182	570.36
802.585	203.77
802.988	27.65
803.392	777.2
803.795	781.3
804.199	-11.26
804.604	230.4
805.008	1170.41
805.413	1643.49
805.819	171.01
806.224	-76.8
806.63	971.76
807.036	1186.8
807.443	150.53
807.85	177.15
808.257	1125.36
808.664	1059.82
809.072	500.73
809.48	318.46
809.889	1330.16
810.297	1264.62
810.706	367.61
811.116	35.84
811.526	861.17
811.936	883.7
812.346	1.02
812.757	25.6
813.167	1010.67
813.579	848.88
813.99	115.71
814.402	-111.61
814.814	1457.13
815.227	889.84
815.64	-211.96
816.053	1.02
816.467	1264.62
816.88	924.66
817.294	314.36
817.709	146.43
818.124	746.48
818.539	1463.27
818.954	189.44
819.37	160.77
819.786	611.32
820.202	994.29
820.619	-365.56
821.036	-209.92
821.453	1246.19
821.871	971.76
822.289	-128
822.707	-181.25
823.126	1047.54
823.545	529.4
823.964	-60.42
824.384	-201.72
824.804	584.7
825.224	965.62
825.645	216.06
826.065	-173.05
826.487	1231.85
826.908	1098.74
827.33	-87.04
827.752	351.23
828.175	875.51
828.598	1158.13
829.021	306.17
829.444	592.89
829.868	1018.86
830.292	527.35
830.717	-222.2
831.142	-203.77
831.567	560.12
831.992	676.85
832.418	312.32
832.844	-314.36
833.27	736.24
833.697	732.15
834.124	-435.19
834.552	-349.18
834.979	1242.09
835.408	1141.74
835.836	-390.14
836.265	-48.13
836.694	494.58
837.123	977.91
837.553	-338.94
837.983	-300.03
838.413	1039.34
838.844	928.75
839.275	-406.52
839.706	-50.18
840.138	1420.27
840.57	625.65
841.003	-191.49
841.435	72.7
841.868	521.21
842.302	562.17
842.735	-76.8
843.169	-347.13
843.604	830.45
844.039	842.74
844.474	-328.7
844.909	-316.41
845.345	814.07
845.781	836.6
846.217	-357.37
846.654	-431.1
847.091	988.14
847.528	570.36
847.966	-429.05
848.404	-277.5
848.842	1352.68
849.281	72.7
849.72	-162.81
850.16	-340.99
850.599	521.21
851.039	472.06
851.48	60.42
851.921	-312.32
852.362	760.82
852.803	1072.11
853.245	-570.36
853.687	-240.64
854.129	879.6
854.572	406.52
855.015	-472.06
855.459	-381.95
855.903	265.21
856.347	797.68
856.791	-168.96
857.236	-410.62
857.681	1231.85
858.127	1389.55
858.572	-101.37
859.019	-320.51
859.465	908.27
859.912	637.94
860.359	-515.06
860.807	-488.44
861.255	443.39
861.703	805.88
862.151	-175.1
862.6	209.92
863.05	846.84
863.499	533.5
863.949	-265.21
864.4	-584.7
864.85	1168.37
865.301	895.99
865.752	-332.79
866.204	-392.19
866.656	347.13
867.109	998.38
867.561	-349.18
868.014	-119.81
868.468	814.07
868.921	883.7
869.376	-334.84
869.83	-300.03
870.285	642.04
870.74	318.46
871.195	-261.12
871.651	-193.53
872.107	1111.02
872.564	383.99
873.021	-537.59
873.478	-625.65
873.936	799.73
874.394	764.92
874.852	-330.75
875.31	-168.96
875.769	613.37
876.229	1145.84
876.688	-211.96
877.148	-390.14
877.609	445.43
878.069	308.22
878.531	-84.99
878.992	-666.61
879.454	601.08
879.916	590.84
880.378	-306.17
880.841	-295.93
881.304	175.1
881.768	236.54
882.232	-496.63
882.696	-168.96
883.161	152.57
883.626	617.46
884.091	-367.61
884.557	-222.2
885.023	203.77
885.489	908.27
885.956	-697.33
886.423	-441.34
886.89	125.95
887.358	750.58
887.826	-488.44
888.295	-351.23
888.763	316.41
889.233	1108.98
889.702	-322.56
890.172	-422.91
890.642	377.85
891.113	371.71
891.584	3.07
892.055	-343.03
892.527	744.44
892.999	916.47
893.472	-470.01
893.944	-183.29
894.417	515.06
894.891	300.03
895.365	-273.4
895.839	-320.51
896.314	543.74
896.789	-189.44
897.264	-447.48
897.74	-570.36
898.216	793.59
898.692	783.35
899.169	-533.5
899.646	-459.77
900.123	527.35
900.601	1080.3
901.079	-480.25
901.558	-330.75
902.037	748.53
902.516	560.12
902.996	-625.65
903.476	-566.26
903.956	347.13
904.437	721.91
904.918	-717.81
905.399	-680.95
905.881	709.62
906.363	707.57
906.846	-635.89
907.329	-433.15
907.812	97.28
908.296	693.24
908.78	-549.88
909.264	-476.15
909.749	179.2
910.234	783.35
910.719	-603.13
911.205	-187.39
911.691	-25.6
912.178	502.78
912.665	-87.04
913.152	-543.74
913.64	207.87
914.128	652.28
914.616	-435.19
915.105	-381.95
915.594	543.74
916.084	953.33
916.574	-338.94
917.064	-619.51
917.555	-29.7
918.046	611.32
918.537	-70.65
919.029	-955.38
919.521	244.73
920.013	951.28
920.506	-402.43
920.999	-519.16
921.493	703.48
921.987	240.64
922.481	-320.51
922.976	-513.02
923.471	291.84
923.967	478.2
924.462	-316.41
924.959	-420.86
925.455	580.6
925.952	447.48
926.449	-660.47
926.947	-523.26
927.445	410.62
927.944	359.42
928.442	-797.68
928.942	-742.39
929.441	695.29
929.941	211.96
930.442	-648.18
930.942	-451.58
931.443	701.43
931.945	125.95
932.447	-603.13
932.949	-529.4
933.451	277.5
933.954	261.12
934.458	-347.13
934.961	-685.05
935.465	152.57
935.97	105.47
936.475	-300.03
936.98	-564.22
937.486	-111.61
937.992	207.87
938.498	-521.21
939.005	-429.05
939.512	269.31
940.019	556.02
940.527	-463.86
941.035	-291.84
941.544	566.26
942.053	240.64
942.562	-218.11
943.072	-197.63
943.582	676.85
944.093	322.56
944.604	-568.31
945.115	-642.04
945.627	791.54
946.139	945.14
946.651	-627.7
947.164	-349.18
947.677	543.74
948.191	441.34
948.705	-621.56
949.219	-721.91
949.734	277.5
950.249	685.05
950.765	-478.2
951.281	-619.51
951.797	1563.62
952.314	814.07
952.831	-594.93
953.348	-789.49
953.866	693.24
954.384	150.53
954.903	-574.46
955.422	-656.37
955.941	404.47
956.461	449.53
956.981	-617.46
957.502	-340.99
958.023	527.35
958.544	490.49
959.066	-461.82
959.588	-713.72
960.11	138.24
960.633	824.31
961.156	-560.12
961.68	-515.06
962.204	863.22
962.729	134.14
963.253	-596.98
963.779	29.7
964.304	611.32
964.83	900.08
965.357	-662.52
965.883	-504.82
966.411	496.63
966.938	664.57
967.466	-529.4
967.994	-728.05
968.523	263.16
969.052	863.22
969.582	-639.99
970.112	-605.17
970.642	62.46
971.173	842.74
971.704	-639.99
972.235	-263.16
972.767	551.93
973.3	375.8
973.832	-349.18
974.365	-730.1
974.899	510.97
975.433	404.47
975.967	-758.77
976.502	-328.7
977.037	396.28
977.572	914.42
978.108	-629.75
978.644	-812.02
979.181	1203.18
979.718	799.73
980.255	-930.8
980.793	-367.61
981.331	-199.68
981.87	637.94
982.409	-603.13
982.948	-351.23
983.488	316.41
984.028	867.31
984.569	-492.54
985.11	-543.74
985.651	812.02
986.193	594.93
986.735	-846.84
987.278	-650.23
987.821	-62.46
988.364	371.71
988.908	-363.51
989.452	-676.85
989.997	-316.41
990.542	537.59
991.088	-666.61
991.633	-175.1
992.18	244.73
992.726	-136.19
993.273	-463.86
993.821	-361.47
994.369	340.99
994.917	775.16
995.465	-766.96
996.014	-799.73
996.564	742.39
997.114	199.68
997.664	-328.7
998.215	-742.39
998.766	420.86
999.317	5.12
999.869	-470.01
1000.421	-732.15
1000.974	635.89
1001.527	642.04
1002.081	-590.84
1002.635	-257.02
1003.189	402.43
1003.744	832.5
1004.299	-879.6
1004.854	-599.03
1005.41	789.49
1005.967	240.64
1006.523	-492.54
1007.081	-549.88
1007.638	570.36
1008.196	467.96
1008.755	-777.2
1009.313	-435.19
1009.873	619.51
1010.432	39.94
1010.992	-336.89
1011.553	-488.44
1012.114	383.99
1012.675	-33.79
1013.237	-336.89
1013.799	-205.82
1014.361	687.09
1014.924	-91.13
1015.487	-736.24
1016.051	-513.02
1016.615	691.19
1017.18	412.67
1017.745	-668.66
1018.31	-164.86
1018.876	842.74
1019.442	478.2
1020.009	-420.86
1020.576	-818.16
1021.143	429.05
1021.711	762.87
1022.28	-558.07
1022.848	-615.41
1023.417	889.84
1023.987	400.38
1024.557	-644.09
1025.127	-631.8
1025.698	-50.18
1026.269	13.31
1026.841	-709.62
1027.413	-431.1
1027.985	158.72
1028.558	267.26
1029.131	-766.96
1029.705	-486.39
1030.279	482.3
1030.854	394.23
1031.429	-654.33
1032.004	-254.97
1032.58	617.46
1033.156	-99.33
1033.733	-758.77
1034.31	-676.85
1034.887	644.09
1035.465	742.39
1036.043	-904.18
1036.622	-508.92
1037.201	240.64
1037.781	699.38
1038.361	-670.71
1038.941	-818.16
1039.522	429.05
1040.103	732.15
1040.685	-672.76
1041.267	-302.08
1041.85	1194.99
1042.433	558.07
1043.016	-721.91
1043.6	-570.36
1044.184	-332.79
1044.769	533.5
1045.354	-472.06
1045.939	-701.43
1046.525	216.06
1047.111	453.63
1047.698	-472.06
1048.285	-846.84
1048.873	580.6
1049.461	-41.98
1050.049	-701.43
1050.638	-652.28
1051.228	68.61
1051.817	752.63
1052.407	-715.77
1052.998	-332.79
1053.589	472.06
1054.18	537.59
1054.772	-916.47
1055.365	-758.77
1055.957	478.2
1056.55	285.69
1057.144	-525.3
1057.738	-672.76
1058.333	144.38
1058.927	107.52
1059.523	-535.54
1060.118	-709.62
1060.715	35.84
1061.311	596.98
1061.908	-742.39
1062.506	-406.52
1063.103	429.05
1063.702	17.41
1064.3	-947.19
1064.9	-736.24
1065.499	918.51
1066.099	39.94
1066.7	-594.93
1067.301	-869.36
1067.902	822.26
1068.504	701.43
1069.106	-340.99
1069.709	-390.14
1070.312	748.53
1070.915	480.25
1071.519	-680.95
1072.123	-431.1
1072.728	613.37
1073.333	363.51
1073.939	-293.88
1074.545	-521.21
1075.152	564.22
1075.759	78.85
1076.366	-758.77
1076.974	-324.6
1077.582	248.83
1078.191	621.56
1078.8	-529.4
1079.41	-898.03
1080.02	310.27
1080.63	314.36
1081.241	-82.94
1081.852	-924.66
1082.464	445.43
1083.076	412.67
1083.689	-719.86
1084.302	-545.78
1084.915	672.76
1085.529	541.69
1086.144	-687.09
1086.759	-535.54
1087.374	158.72
1087.99	289.79
1088.606	-693.24
1089.222	-611.32
1089.839	517.11
1090.457	400.38
1091.075	-609.27
1091.693	-889.84
1092.312	494.58
1092.931	855.03
1093.551	-701.43
1094.171	-287.74
1094.792	482.3
1095.413	244.73
1096.034	-578.55
1096.656	-601.08
1097.278	574.46
1097.901	396.28
1098.524	-639.99
1099.148	-336.89
1099.772	883.7
1100.397	359.42
1101.022	-764.92
1101.647	-631.8
1102.273	486.39
1102.899	680.95
1103.526	-998.38
1104.153	-420.86
1104.781	576.5
1105.409	785.4
1106.038	-750.58
1106.667	-889.84
1107.296	293.88
1107.926	203.77
1108.556	-171.01
1109.187	-500.73
1109.818	281.6
1110.45	568.31
1111.082	-496.63
1111.715	-644.09
1112.348	359.42
1112.981	349.18
1113.615	-277.5
1114.25	-472.06
1114.885	187.39
1115.52	246.78
1116.156	-787.44
1116.792	-660.47
1117.428	527.35
1118.066	136.19
1118.703	-279.55
1119.341	-560.12
1119.98	717.81
1120.618	826.36
1121.258	-799.73
1121.898	-807.92
1122.538	453.63
1123.179	-48.13
1123.82	-431.1
1124.461	-508.92
1125.103	691.19
1125.746	168.96
1126.389	-422.91
1127.032	-738.29
1127.676	584.7
1128.32	848.88
1128.965	-617.46
1129.61	-461.82
1130.256	60.42
1130.902	635.89
1131.549	-623.61
1132.196	-652.28
1132.844	777.2
1133.491	646.13
1134.14	-541.69
1134.789	-576.5
1135.438	1068.02
1136.088	166.91
1136.738	-787.44
1137.389	-754.68
1138.04	461.82
1138.692	971.76
1139.344	-683
1139.996	-629.75
1140.649	517.11
1141.303	629.75
1141.957	-398.33
1142.611	-586.74
1143.266	429.05
1143.921	316.41
1144.577	-562.17
1145.233	-635.89
1145.89	60.42
1146.547	601.08
1147.205	-848.88
1147.863	-510.97
1148.521	486.39
1149.18	556.02
1149.84	-726
1150.5	-701.43
1151.16	330.75
1151.821	687.09
1152.482	-517.11
1153.144	-11.26
1153.806	412.67
1154.469	590.84
1155.132	-799.73
1155.796	-443.39
1156.46	549.88
1157.124	836.6
1157.789	-721.91
1158.455	-742.39
1159.121	422.91
1159.787	-5.12
1160.454	-453.63
1161.121	-441.34
1161.789	318.46
1162.457	625.65
1163.126	-476.15
1163.795	-558.07
1164.465	340.99
1165.135	228.35
1165.806	-439.29
1166.477	-383.99
1167.148	-314.36
1167.82	453.63
1168.493	-928.75
1169.166	-433.15
1169.839	121.85
1170.513	416.76
1171.187	-756.72
1171.862	-582.65
1172.537	310.27
1173.213	496.63
1173.889	-605.17
1174.566	-670.71
1175.243	787.44
1175.921	273.4
1176.599	-539.64
1177.278	-381.95
1177.957	35.84
1178.636	734.2
1179.316	-463.86
1179.997	-840.69
1180.678	519.16
1181.359	750.58
1182.041	-734.2
1182.723	-687.09
1183.406	683
1184.089	132.09
1184.773	-715.77
1185.457	-947.19
1186.142	95.23
1186.827	1291.24
1187.513	-791.54
1188.199	-175.1
1188.886	144.38
1189.573	355.32
1190.26	-599.03
1190.948	-627.7
1191.637	-1.02
1192.326	220.16
1193.015	-705.53
1193.705	-771.06
1194.396	89.09
1195.087	224.25
1195.778	-496.63
1196.47	-717.81
1197.162	379.9
1197.855	580.6
1198.548	-578.55
1199.242	-934.9
1199.936	431.1
1200.631	662.52
1201.326	-844.79
1202.022	-863.22
1202.718	723.96
1203.415	437.24
1204.112	-928.75
1204.81	-562.17
1205.508	93.18
1206.206	1043.44
1206.905	-646.13
1207.605	-721.91
1208.305	398.33
1209.005	349.18
1209.706	-762.87
1210.408	-672.76
1211.11	328.7
1211.812	484.34
1212.515	-527.35
1213.218	-660.47
1213.922	359.42
1214.627	248.83
1215.331	-574.46
1216.037	-558.07
1216.743	-60.42
1217.449	445.43
1218.156	-476.15
1218.863	-484.34
1219.571	164.86
1220.279	781.3
1220.988	-685.05
1221.697	-582.65
1222.406	666.61
1223.117	183.29
1223.827	-547.83
1224.538	-656.37
1225.25	338.94
1225.962	343.03
1226.675	-963.57
1227.388	-566.26
1228.101	291.84
1228.815	-48.13
1229.53	-500.73
1230.245	-562.17
1230.961	404.47
1231.677	183.29
1232.393	-652.28
1233.11	-521.21
1233.828	1000.43
1234.546	519.16
1235.264	-562.17
1235.983	-326.65
1236.702	1008.62
1237.422	422.91
1238.143	-328.7
1238.864	-660.47
1239.585	650.23
1240.307	-211.96
1241.029	-764.92
1241.752	-431.1
1242.476	496.63
1243.2	754.68
1243.924	-533.5
1244.649	-472.06
1245.374	678.9
1246.1	830.45
1246.826	-865.27
1247.553	-660.47
1248.28	502.78
1249.008	539.64
1249.737	-762.87
1250.465	-437.24
1251.195	482.3
1251.925	785.4
1252.655	-680.95
1253.386	-355.32
1254.117	347.13
1254.849	128
1255.581	-562.17
1256.314	-545.78
1257.047	648.18
1257.781	525.3
1258.515	-633.85
1259.25	-181.25
1259.985	297.98
1260.721	396.28
1261.457	-476.15
1262.194	-824.31
1262.931	195.58
1263.669	855.03
1264.407	-404.47
1265.146	-822.26
1265.885	439.29
1266.625	289.79
1267.365	-611.32
1268.106	-625.65
1268.847	363.51
1269.589	80.89
1270.331	-412.67
1271.074	-525.3
1271.817	439.29
1272.561	345.08
1273.305	-404.47
1274.05	-510.97
1274.795	377.85
1275.541	406.52
1276.287	-865.27
1277.034	-742.39
1277.781	44.03
1278.529	519.16
1279.277	-828.4
1280.026	-805.88
1280.775	734.2
1281.525	-459.77
1282.275	-869.36
1283.026	-193.53
1283.777	355.32
1284.529	474.1
1285.281	-533.5
1286.034	-848.88
1286.788	764.92
1287.541	326.65
1288.296	-910.32
1289.051	-400.38
1289.806	338.94
1290.562	494.58
1291.318	-695.29
1292.075	-480.25
1292.832	781.3
1293.59	859.12
1294.349	-711.67
1295.108	-615.41
1295.867	982
1296.627	625.65
1297.387	-789.49
1298.148	-396.28
1298.91	375.8
1299.672	52.22
1300.434	-592.89
1301.197	-734.2
1301.961	1238
1302.725	406.52
1303.489	-414.71
1304.254	-492.54
1305.02	558.07
1305.786	775.16
1306.552	-938.99
1307.319	-932.85
1308.087	822.26
1308.855	855.03
1309.624	-619.51
1310.393	-609.27
1311.162	-199.68
1311.933	588.79
1312.703	-619.51
1313.474	-379.9
1314.246	267.26
1315.018	592.89
1315.791	-267.26
1316.564	-746.48
1317.338	646.13
1318.112	267.26
1318.887	-781.3
1319.662	-553.98
1320.438	388.09
1321.214	158.72
1321.991	-363.51
1322.769	-701.43
1323.546	406.52
1324.325	-15.36
1325.104	-750.58
1325.883	-529.4
1326.663	-95.23
1327.444	410.62
1328.224	-723.96
1329.006	-474.1
1329.788	457.72
1330.571	322.56
1331.354	-273.4
1332.137	-766.96
1332.921	695.29
1333.706	-58.37
1334.491	-404.47
1335.277	-492.54
1336.063	101.37
1336.849	310.27
1337.637	-783.35
1338.424	-685.05
1339.213	918.51
1340.001	822.26
1340.791	-783.35
1341.581	-420.86
1342.371	551.93
1343.162	369.66
1343.953	-680.95
1344.745	-500.73
1345.537	539.64
1346.33	549.88
1347.124	-623.61
1347.918	-390.14
1348.712	809.97
1349.507	482.3
1350.303	-693.24
1351.099	-455.67
1351.896	142.33
1352.693	-209.92
1353.49	-662.52
1354.289	-517.11
1355.087	582.65
1355.887	683
1356.686	-449.53
1357.487	-656.37
1358.288	150.53
1359.089	371.71
1359.891	-160.77
1360.693	-578.55
1361.496	-54.27
1362.3	261.12
1363.104	-646.13
1363.908	-594.93
1364.713	902.13
1365.519	834.55
1366.325	-701.43
1367.131	-936.95
1367.939	400.38
1368.746	855.03
1369.555	-1000.43
1370.363	-521.21
1371.173	822.26
1371.982	1256.43
1372.793	-721.91
1373.604	-967.67
1374.415	601.08
1375.227	785.4
1376.039	-766.96
1376.852	-658.42
1377.666	979.95
1378.48	373.75
1379.295	-693.24
1380.11	-840.69
1380.925	7.17
1381.742	1000.43
1382.558	-551.93
1383.376	-570.36
1384.193	461.82
1385.012	216.06
1385.831	-676.85
1386.65	-619.51
1387.47	103.42
1388.29	183.29
1389.111	-627.7
1389.933	-865.27
1390.755	777.2
1391.578	199.68
1392.401	-775.16
1393.225	-637.94
1394.049	822.26
1394.873	308.22
1395.699	-750.58
1396.525	-529.4
1397.351	697.33
1398.178	23.55
1399.005	-551.93
1399.833	-1096.69
1400.662	601.08
1401.491	977.91
1402.321	-670.71
1403.151	-568.31
1403.981	328.7
1404.813	553.98
1405.644	-480.25
1406.477	-769.01
1407.309	230.4
1408.143	1051.63
1408.977	-672.76
1409.811	-652.28
1410.646	904.18
1411.482	822.26
1412.318	-582.65
1413.155	-650.23
1413.992	685.05
1414.829	29.7
1415.668	-631.8
1416.506	-377.85
1417.346	805.88
1418.186	494.58
1419.026	-680.95
1419.867	-928.75
1420.709	693.24
1421.551	590.84
1422.393	-938.99
1423.236	-420.86
1424.08	441.34
1424.924	388.09
1425.769	-736.24
1426.614	-666.61
1427.46	529.4
1428.307	193.53
1429.154	-850.93
1430.001	-750.58
1430.849	381.95
1431.698	236.54
1432.547	-828.4
1433.397	-906.23
1434.247	691.19
1435.098	879.6
1435.949	-619.51
1436.801	-601.08
1437.653	175.1
1438.506	599.03
1439.36	-1033.2
1440.214	-709.62
1441.069	609.27
1441.924	410.62
1442.78	-689.14
1443.636	-875.51
1444.493	267.26
1445.35	474.1
1446.208	-562.17
1447.067	-764.92
1447.926	439.29
1448.785	766.96
1449.645	-693.24
1450.506	-726
1451.367	447.48
1452.229	117.76
1453.091	-685.05
1453.954	-386.04
1454.818	207.87
1455.682	379.9
1456.546	-594.93
1457.412	-822.26
1458.277	723.96
1459.143	259.07
1460.01	-381.95
1460.878	-836.6
1461.745	394.23
1462.614	164.86
1463.483	-918.51
1464.352	-537.59
1465.223	740.34
1466.093	590.84
1466.964	-805.88
1467.836	-830.45
1468.709	715.77
1469.581	271.36
1470.455	-531.45
1471.329	-748.53
1472.203	27.65
1473.079	140.29
1473.954	-261.12
1474.831	-787.44
1475.707	150.53
1476.585	269.31
1477.463	-687.09
1478.341	-713.72
1479.22	5.12
1480.1	449.53
1480.98	-912.37
1481.861	-834.55
1482.742	472.06
1483.624	650.23
1484.506	-476.15
1485.389	-547.83
1486.273	214.01
1487.157	142.33
1488.041	-764.92
1488.926	-807.92
1489.812	519.16
1490.699	410.62
1491.585	-650.23
1492.473	-590.84
1493.361	-177.15
1494.249	306.17
1495.139	-500.73
1496.028	-527.35
1496.919	-25.6
1497.809	496.63
1498.701	-738.29
1499.593	-619.51
1500.485	244.73
1501.378	820.21
1502.272	-349.18
1503.166	-570.36
1504.061	711.67
1504.956	513.02
1505.852	-660.47
1506.749	-830.45
1507.646	502.78
1508.543	381.95
1509.442	-844.79
1510.34	-164.86
1511.24	994.29
1512.14	306.17
1513.04	-633.85
1513.941	-871.41
1514.843	1182.7
1515.745	11.26
1516.648	-609.27
1517.551	-838.64
1518.455	-19.46
1519.359	-246.78
1520.264	-732.15
1521.17	-771.06
1522.076	115.71
1522.983	445.43
1523.89	-877.55
1524.798	-541.69
1525.706	388.09
1526.615	1430.51
1527.525	-805.88
1528.435	-623.61
1529.346	574.46
1530.257	23.55
1531.169	-408.57
1532.081	-762.87
1532.994	1135.6
1533.908	224.25
1534.822	-666.61
1535.737	-592.89
1536.652	429.05
1537.568	291.84
1538.484	-556.02
1539.401	-1045.49
1540.319	809.97
1541.237	-68.61
1542.156	-816.12
1543.075	-766.96
1543.995	945.14
1544.916	1168.37
1545.837	-797.68
1546.758	-783.35
1547.68	791.54
1548.603	715.77
1549.527	-484.34
1550.451	-781.3
1551.375	470.01
1552.3	824.31
1553.226	-857.07
1554.152	-803.83
1555.079	801.78
1556.006	383.99
1556.934	-433.15
1557.863	-603.13
1558.792	955.38
1559.722	82.94
1560.652	-521.21
1561.583	-1016.82
1562.514	35.84
1563.446	216.06
1564.379	-996.34
1565.312	-488.44
1566.246	748.53
1567.18	330.75
1568.115	-674.81
1569.051	-726
1569.987	736.24
1570.924	977.91
1571.861	-807.92
1572.799	-642.04
1573.737	674.81
1574.676	410.62
1575.616	-476.15
1576.556	-674.81
1577.497	-31.74
1578.438	244.73
1579.38	-789.49
1580.323	-584.7
1581.266	535.54
1582.21	732.15
1583.154	-701.43
1584.099	-814.07
1585.044	586.74
1585.99	760.82
1586.937	-459.77
1587.884	-523.26
1588.832	289.79
1589.78	869.36
1590.729	-687.09
1591.679	-488.44
1592.629	482.3
1593.58	578.55
1594.531	-605.17
1595.483	-492.54
1596.435	216.06
1597.388	84.99
1598.342	-420.86
1599.296	-562.17
1600.251	496.63
1601.207	707.57
1602.163	-525.3
1603.119	-726
1604.077	791.54
1605.034	971.76
1605.993	-445.43
1606.952	3.07
1607.911	191.49
1608.872	265.21
1609.832	-713.72
1610.794	-879.6
1611.756	592.89
1612.718	506.87
1613.681	-379.9
1614.645	-584.7
1615.609	771.06
1616.574	285.69
1617.54	-11.26
1618.506	-623.61
1619.472	728.05
1620.44	756.72
1621.408	-87.04
1622.376	-433.15
1623.345	398.33
1624.315	756.72
1625.285	-502.78
1626.256	-420.86
1627.227	482.3
1628.199	-17.41
1629.172	-412.67
1630.145	-488.44
1631.119	470.01
1632.094	1022.96
1633.069	-588.79
1634.044	-476.15
1635.02	209.92
1635.997	758.77
1636.975	-527.35
1637.953	-726
1638.931	965.62
1639.911	48.13
1640.89	-816.12
1641.871	-578.55
1642.852	576.5
1643.833	406.52
1644.816	-850.93
1645.798	-875.51
1646.782	955.38
1647.766	177.15
1648.75	-726
1649.736	-691.19
1650.721	76.8
1651.708	396.28
1652.695	-732.15
1653.682	-494.58
1654.671	470.01
1655.66	576.5
1656.649	-656.37
1657.639	-685.05
1658.63	-70.65
1659.621	273.4
1660.613	-855.03
1661.605	-824.31
1662.598	275.45
1663.592	297.98
1664.586	-951.28
1665.581	-863.22
1666.576	234.49
1667.572	254.97
1668.569	-652.28
1669.566	-812.02
1670.564	599.03
1671.563	695.29
1672.562	-783.35
1673.562	-269.31
1674.562	379.9
1675.563	490.49
1676.564	-371.71
1677.566	-631.8
1678.569	936.95
1679.572	-340.99
1680.576	-570.36
1681.581	-635.89
1682.586	179.2
1683.592	494.58
1684.598	-617.46
1685.605	-502.78
1686.613	494.58
1687.621	257.02
1688.63	-461.82
1689.639	-398.33
1690.649	171.01
1691.66	453.63
1692.671	-406.52
1693.683	-738.29
1694.696	-7.17
1695.709	349.18
1696.722	-676.85
1697.737	-521.21
1698.752	-11.26
1699.767	486.39
1700.783	-484.34
1701.8	-484.34
1702.818	285.69
1703.836	-78.85
1704.854	-818.16
1705.873	-594.93
1706.893	302.08
1707.914	437.24
1708.935	-537.59
1709.956	-588.79
1710.979	240.64
1712.002	373.75
1713.025	-644.09
1714.049	-560.12
1715.074	564.22
1716.099	617.46
1717.125	-701.43
1718.152	-836.6
1719.179	95.23
1720.207	756.72
1721.235	-140.29
1722.265	-216.06
1723.294	306.17
1724.325	158.72
1725.355	-431.1
1726.387	-461.82
1727.419	347.13
1728.452	594.93
1729.485	-443.39
1730.519	-738.29
1731.554	-21.5
1732.589	402.43
1733.625	-734.2
1734.662	-637.94
1735.699	-41.98
1736.736	666.61
1737.775	-766.96
1738.814	-588.79
1739.853	171.01
1740.894	199.68
1741.934	-478.2
1742.976	-717.81
1744.018	537.59
1745.061	314.36
1746.104	-635.89
1747.148	-680.95
1748.193	355.32
1749.238	431.1
1750.284	-562.17
1751.33	-793.59
1752.377	515.06
1753.425	984.05
1754.473	-613.37
1755.522	-582.65
1756.572	758.77
1757.622	508.92
1758.673	-852.98
1759.724	-570.36
1760.776	760.82
1761.829	826.36
1762.882	-343.03
1763.936	-816.12
1764.991	134.14
1766.046	951.28
1767.102	-549.88
1768.158	-787.44
1769.215	404.47
1770.273	451.58
1771.331	-482.3
1772.39	-781.3
1773.45	486.39
1774.51	457.72
1775.571	-760.82
1776.632	-263.16
1777.694	300.03
1778.757	488.44
1779.82	-478.2
1780.884	-613.37
1781.949	236.54
1783.014	568.31
1784.08	-961.52
1785.147	-654.33
1786.214	216.06
1787.282	183.29
1788.35	-539.64
1789.419	-422.91
1790.489	685.05
1791.559	439.29
1792.63	-703.48
1793.702	-439.29
1794.774	322.56
1795.847	601.08
1796.92	-332.79
1797.994	-543.74
1799.069	513.02
1800.144	1072.11
1801.22	-615.41
1802.297	-347.13
1803.374	-5.12
1804.452	461.82
1805.531	-709.62
1806.61	-306.17
1807.69	578.55
1808.77	-87.04
1809.851	-482.3
1810.933	-906.23
1812.015	652.28
1813.098	128
1814.182	-603.13
1815.266	-611.32
1816.351	334.84
1817.437	361.47
1818.523	-510.97
1819.61	-465.91
1820.697	365.56
1821.785	1192.94
1822.874	-517.11
1823.963	-639.99
1825.053	252.92
1826.144	558.07
1827.235	-670.71
1828.327	-558.07
1829.42	470.01
1830.513	-74.75
1831.607	-705.53
1832.701	-676.85
1833.796	269.31
1834.892	627.7
1835.989	-738.29
1837.086	-775.16
1838.183	412.67
1839.282	363.51
1840.381	-635.89
1841.48	-715.77
1842.581	424.95
1843.682	924.66
1844.783	-226.3
1845.885	-324.6
1846.988	658.42
1848.092	437.24
1849.196	-517.11
1850.301	-451.58
1851.406	46.08
1852.512	1016.82
1853.619	-693.24
1854.726	-711.67
1855.834	123.9
1856.943	728.05
1858.052	-723.96
1859.162	-560.12
1860.273	373.75
1861.384	803.83
1862.496	-609.27
1863.608	-594.93
1864.721	533.5
1865.835	138.24
1866.95	-717.81
1868.065	-603.13
1869.181	89.09
1870.297	785.4
1871.414	-529.4
1872.532	-766.96
1873.65	310.27
1874.769	146.43
1875.889	-758.77
1877.009	-238.59
1878.13	445.43
1879.252	773.11
1880.374	-474.1
1881.497	-652.28
1882.62	521.21
1883.745	207.87
1884.87	-816.12
1885.995	-840.69
1887.121	277.5
1888.248	123.9
1889.376	-822.26
1890.504	-723.96
1891.632	390.14
1892.762	168.96
1893.892	-685.05
1895.023	-386.04
1896.154	93.18
1897.286	349.18
1898.419	-732.15
1899.552	-603.13
1900.686	570.36
1901.821	515.06
1902.956	-576.5
1904.092	-570.36
1905.229	785.4
1906.366	576.5
1907.504	-615.41
1908.643	-603.13
1909.782	588.79
