Data from led6500K_USB4H112691__0__12-40-00-178.txt Node

Date: Tue Dec 17 12:40:00 CET 2024
User: Etudiants TP
Spectrometer: USB4H11269
Trigger mode: 4
Integration Time (sec): 1.000000E0
Scans to average: 1
Electric dark correction enabled: true
Nonlinearity correction enabled: false
Boxcar width: 0
XAxis mode: Wavelengths
Number of Pixels in Spectrum: 3648
>>>>>Begin Spectral Data<<<<<
286.377	-1654.08
286.631	-1654.08
286.884	-1654.08
287.138	-1688.89
287.391	-1668.41
287.644	-875.85
287.896	-638.28
288.149	676.51
288.401	438.95
288.653	-525.65
288.905	-525.65
289.157	969.37
289.409	479.91
289.661	-427.34
289.912	-820.55
290.163	461.48
290.414	787.1
290.665	-773.45
290.916	-636.24
291.166	555.68
291.417	1133.21
291.667	-605.52
291.917	-226.64
292.167	520.87
292.417	397.99
292.666	-755.02
292.916	-650.57
293.165	434.85
293.414	830.11
293.663	-881.99
293.912	-814.41
294.16	793.25
294.408	735.9
294.657	-734.54
294.905	-480.59
295.153	541.35
295.4	619.17
295.648	-849.22
295.895	-791.88
296.143	15.02
296.39	828.06
296.637	-675.15
296.884	-718.15
297.13	563.87
297.377	875.17
297.623	-593.23
297.869	-302.42
298.115	815.77
298.361	723.62
298.606	-771.4
298.852	-578.89
299.097	606.88
299.342	1006.24
299.587	-406.86
299.832	-607.56
300.077	875.17
300.322	527.01
300.566	-755.02
300.81	-462.16
301.054	592.55
301.298	869.02
301.542	-30.04
301.785	-331.09
302.029	1032.86
302.272	875.17
302.515	-834.89
302.758	-529.74
303.001	783.01
303.244	821.92
303.486	-546.12
303.729	-884.04
303.971	1018.52
304.213	832.16
304.455	-890.18
304.696	-374.1
304.938	277.16
305.179	799.39
305.421	-437.58
305.662	-410.96
305.903	463.52
306.143	334.5
306.384	-470.35
306.625	-511.31
306.865	559.78
307.105	228.01
307.345	-480.59
307.585	-566.6
307.825	133.8
308.064	797.34
308.304	-542.03
308.543	-783.69
308.782	563.87
309.021	889.5
309.26	-445.77
309.499	-599.37
309.737	961.18
309.976	750.24
310.214	-718.15
310.452	-646.48
310.69	1067.67
310.928	185
311.165	-679.24
311.403	-609.61
311.64	938.65
311.878	602.79
312.115	-558.41
312.351	-431.44
312.588	449.19
312.825	989.85
313.061	-830.79
313.298	29.35
313.534	264.87
313.77	869.02
314.006	-621.9
314.241	-738.63
314.477	815.77
314.713	1170.07
314.948	-521.55
315.183	234.15
315.418	1010.33
315.653	627.36
315.888	-752.97
316.122	-496.97
316.357	350.89
316.591	785.05
316.825	-535.89
317.059	-601.42
317.293	989.85
317.527	484
317.76	-701.77
317.994	-456.01
318.227	717.47
318.46	1043.1
318.693	-709.96
318.926	-462.16
319.159	55.98
319.391	512.67
319.624	-832.84
319.856	-591.18
320.088	793.25
320.321	641.7
320.552	-345.42
320.784	-632.14
321.016	856.73
321.247	29.35
321.479	-394.58
321.71	-374.1
321.941	-218.45
322.172	1149.59
322.403	-585.04
322.633	-222.55
322.864	856.73
323.094	232.1
323.325	53.93
323.555	-634.19
323.785	285.35
324.014	273.06
324.244	-521.55
324.474	-365.9
324.703	899.74
324.933	887.45
325.162	-335.18
325.391	-824.65
325.62	-21.84
325.848	780.96
326.077	-550.22
326.306	-431.44
326.534	651.94
326.762	936.6
326.99	-585.04
327.218	-324.94
327.446	817.82
327.674	84.65
327.901	-630.09
328.129	-673.1
328.356	727.71
328.583	234.15
328.81	-709.96
329.037	-357.71
329.264	289.45
329.491	858.78
329.717	-443.73
329.944	-634.19
330.17	381.6
330.396	252.58
330.622	-746.83
330.848	-386.38
331.074	582.31
331.299	1479.32
331.525	-681.29
331.75	-585.04
331.975	948.89
332.201	277.16
332.426	-775.5
332.65	-669
332.875	-144.72
333.1	414.37
333.324	-656.72
333.549	-669
333.773	334.5
333.997	604.83
334.221	-607.56
334.445	-632.14
334.668	592.55
334.892	1192.6
335.116	-353.62
335.339	-509.26
335.562	15.02
335.785	549.54
336.008	-337.23
336.231	-660.81
336.454	-101.72
336.676	909.98
336.899	-427.34
337.121	-365.9
337.343	84.65
337.566	574.11
337.788	-582.99
338.009	-703.82
338.231	193.19
338.453	406.18
338.674	3267.19
338.896	-525.65
339.117	-48.47
339.338	955.04
339.559	-656.72
339.78	-513.36
340.001	68.27
340.222	858.78
340.442	-582.99
340.663	-255.31
340.883	752.29
341.103	447.14
341.323	-578.89
341.543	-464.21
341.763	780.96
341.983	389.8
342.202	-752.97
342.422	-617.8
342.641	1149.59
342.861	453.28
343.08	-218.45
343.299	-681.29
343.518	656.03
343.736	610.98
343.955	-664.91
344.174	-738.63
344.392	740
344.61	68.27
344.829	-714.06
345.047	-535.89
345.265	678.56
345.483	912.03
345.7	-574.8
345.918	-75.09
346.136	119.46
346.353	860.83
346.57	-679.24
346.788	-738.63
347.005	365.22
347.222	76.46
347.438	-111.96
347.655	-640.33
347.872	135.85
348.088	1190.55
348.305	-310.61
348.521	-636.24
348.737	211.62
348.953	969.37
349.169	-148.82
349.385	-542.03
349.601	463.52
349.817	12.97
350.032	-99.67
350.248	-355.66
350.463	1356.44
350.678	-210.26
350.893	-644.43
351.108	-767.31
351.323	207.53
351.538	748.19
351.753	-660.81
351.967	-626
352.182	817.82
352.396	322.21
352.61	-738.63
352.824	-531.79
353.038	518.82
353.252	881.31
353.466	-339.28
353.68	-513.36
353.894	367.27
354.107	215.72
354.32	-324.94
354.534	-648.52
354.747	729.76
354.96	-85.33
355.173	-367.95
355.386	-816.46
355.599	477.86
355.811	342.69
356.024	-699.72
356.236	-484.69
356.449	217.77
356.661	336.55
356.873	-705.87
357.085	-865.61
357.297	674.46
357.509	631.46
357.721	-609.61
357.933	-595.28
358.144	193.19
358.356	264.87
358.567	-435.53
358.778	-701.77
358.989	887.45
359.2	236.2
359.411	-523.6
359.622	-458.06
359.833	545.44
360.044	248.49
360.254	-638.28
360.465	-671.05
360.675	471.72
360.885	387.75
361.096	-746.83
361.306	-429.39
361.516	379.56
361.726	475.81
361.935	-845.13
362.145	-578.89
362.355	514.72
362.564	445.09
362.774	-865.61
362.983	-773.45
363.192	936.6
363.401	174.76
363.61	-709.96
363.819	-210.26
364.028	453.28
364.237	920.22
364.445	-558.41
364.654	-404.82
364.862	541.35
365.071	262.82
365.279	-386.38
365.487	-666.96
365.695	543.39
365.903	318.12
366.111	-709.96
366.319	-587.08
366.527	643.74
366.734	311.97
366.942	-460.11
367.149	-810.31
367.357	-437.58
367.564	1135.26
367.771	-529.74
367.978	-652.62
368.185	273.06
368.392	324.26
368.599	-249.17
368.806	-636.24
369.013	-52.56
369.219	537.25
369.426	-793.93
369.632	-271.7
369.838	1172.12
370.044	592.55
370.251	-564.56
370.457	-523.6
370.663	887.45
370.868	457.38
371.074	-578.89
371.28	-628.04
371.485	-107.86
371.691	674.46
371.896	-693.58
372.102	-689.48
372.307	1092.25
372.512	842.4
372.717	-619.85
372.922	-224.59
373.127	8.87
373.332	428.71
373.537	-437.58
373.741	-521.55
373.946	545.44
374.151	336.55
374.355	-742.73
374.559	-464.21
374.764	236.2
374.968	-279.89
375.172	-597.32
375.376	-193.87
375.58	608.93
375.784	176.81
375.987	-718.15
376.191	-632.14
376.395	144.04
376.598	354.98
376.802	-724.3
377.005	-234.83
377.208	172.71
377.412	191.14
377.615	-865.61
377.818	-660.81
378.021	273.06
378.224	-3.41
378.426	-558.41
378.629	-800.07
378.832	740
379.034	733.86
379.237	-808.26
379.439	-902.47
379.642	709.28
379.844	598.69
380.046	-894.28
380.248	-757.07
380.45	-99.67
380.652	-148.82
380.854	-574.8
381.056	-664.91
381.258	404.13
381.459	524.96
381.661	-738.63
381.862	-359.76
382.064	-54.61
382.265	244.39
382.467	-677.19
382.668	-515.41
382.869	758.43
383.07	428.71
383.271	-464.21
383.472	-615.76
383.673	692.9
383.874	371.37
384.074	-480.59
384.275	-748.87
384.476	447.14
384.676	1137.31
384.876	-763.21
385.077	-634.19
385.277	680.61
385.477	866.97
385.677	-699.72
385.878	-451.92
386.078	354.98
386.278	363.17
386.477	-230.74
386.677	-185.68
386.877	481.96
387.077	625.31
387.276	-462.16
387.476	-503.12
387.675	379.56
387.875	914.08
388.074	-675.15
388.273	-488.78
388.472	836.25
388.671	-124.24
388.87	-671.05
389.069	-163.15
389.268	-259.41
389.467	47.79
389.666	-748.87
389.865	-275.79
390.063	570.02
390.262	707.23
390.461	-681.29
390.659	-623.95
390.857	758.43
391.056	672.42
391.254	-650.57
391.452	-513.36
391.65	791.2
391.849	471.72
392.047	-398.67
392.245	-345.42
392.442	221.86
392.64	557.73
392.838	-275.79
393.036	-380.24
393.233	318.12
393.431	299.69
393.629	-941.38
393.826	-476.49
394.023	281.25
394.221	-154.96
394.418	-535.89
394.615	-331.09
394.812	70.31
395.01	748.19
395.207	-656.72
395.404	-634.19
395.601	948.89
395.797	412.32
395.994	-832.84
396.191	-527.69
396.388	316.07
396.584	658.08
396.781	-271.7
396.977	-9.56
397.174	629.41
397.37	-25.94
397.567	-435.53
397.763	-650.57
397.959	338.6
398.155	365.22
398.352	-456.01
398.548	-238.93
398.744	576.16
398.94	387.75
399.136	-689.48
399.331	-314.7
399.527	371.37
399.723	506.53
399.919	-398.67
400.114	-505.17
400.31	170.66
400.505	545.44
400.701	-488.78
400.896	-562.51
401.092	203.43
401.287	404.13
401.482	-718.15
401.678	-394.58
401.873	772.77
402.068	629.41
402.263	-355.66
402.458	-445.77
402.653	223.91
402.848	559.78
403.043	-474.45
403.237	-621.9
403.432	236.2
403.627	-193.87
403.822	-838.98
404.016	-523.6
404.211	217.77
404.405	613.03
404.6	-226.64
404.794	-218.45
404.989	600.74
405.183	197.29
405.377	-316.75
405.571	-150.87
405.766	520.87
405.96	334.5
406.154	-513.36
406.348	-378.19
406.542	453.28
406.736	535.2
406.93	-656.72
407.124	-413.01
407.318	389.8
407.511	391.84
407.705	-339.28
407.899	-542.03
408.092	486.05
408.286	461.48
408.48	-761.16
408.673	-591.18
408.867	133.8
409.06	414.37
409.253	-255.31
409.447	-388.43
409.64	795.29
409.833	510.63
410.026	-333.14
410.22	-259.41
410.413	656.03
410.606	514.72
410.799	-701.77
410.992	-492.88
411.185	381.6
411.378	1045.15
411.571	-517.45
411.764	-353.62
411.956	643.74
412.149	481.96
412.342	-314.7
412.534	-337.23
412.727	651.94
412.92	436.9
413.112	-326.99
413.305	-183.63
413.497	891.55
413.69	725.66
413.882	-417.1
414.075	-159.06
414.267	561.83
414.459	387.75
414.652	-521.55
414.844	-413.01
415.036	596.64
415.228	866.97
415.42	-148.82
415.612	-433.49
415.804	928.41
415.997	570.02
416.188	-173.39
416.38	-193.87
416.572	326.31
416.764	748.19
416.956	-443.73
417.148	-460.11
417.34	354.98
417.531	33.45
417.723	-404.82
417.915	-281.94
418.107	275.11
418.298	633.51
418.49	-267.6
418.681	-101.72
418.873	893.6
419.064	486.05
419.256	-159.06
419.447	-333.14
419.639	760.48
419.83	977.56
420.021	-130.39
420.213	-363.86
420.404	484
420.595	621.22
420.786	-44.37
420.978	-44.37
421.169	920.22
421.36	484
421.551	-296.27
421.742	-218.45
421.933	1053.34
422.124	823.97
422.315	-71
422.506	-193.87
422.697	823.97
422.888	522.91
423.079	109.23
423.27	-183.63
423.461	674.46
423.652	445.09
423.842	-187.73
424.033	-30.04
424.224	948.89
424.415	1333.91
424.605	-30.04
424.796	-197.97
424.987	1018.52
425.177	895.65
425.368	-398.67
425.558	-185.68
425.749	731.81
425.939	625.31
426.13	379.56
426.32	117.42
426.511	617.12
426.701	625.31
426.892	33.45
427.082	-56.66
427.272	594.59
427.463	850.59
427.653	103.08
427.843	205.48
428.034	1424.02
428.224	1026.72
428.414	-77.14
428.604	268.97
428.795	1065.63
428.985	1192.6
429.175	393.89
429.365	438.95
429.555	1129.11
429.745	977.56
429.935	213.67
430.126	443.04
430.316	1370.77
430.506	1444.5
430.696	424.61
430.886	492.2
431.076	1403.54
431.266	1157.79
431.456	651.94
431.645	305.83
431.835	1063.58
432.025	1460.88
432.215	340.65
432.405	662.18
432.595	1335.96
432.785	1288.86
432.975	533.15
433.164	264.87
433.354	1153.69
433.544	1575.57
433.734	434.85
433.923	764.58
434.113	1446.55
434.303	1407.64
434.493	783.01
434.682	746.14
434.872	1780.37
435.062	1106.59
435.251	758.43
435.441	803.49
435.631	2099.85
435.82	1657.49
436.01	785.05
436.2	1071.77
436.389	1546.9
436.579	2415.24
436.768	1413.78
436.958	1348.25
437.147	1974.92
437.337	2284.17
437.527	1362.58
437.716	1157.79
437.906	2474.63
438.095	2185.87
438.285	1256.09
438.474	1436.31
438.664	2554.5
438.853	2296.46
439.043	1792.66
439.232	1462.93
439.422	2759.3
439.611	2710.15
439.8	1542.8
439.99	2065.04
440.179	2822.78
440.369	3050.11
440.558	1702.54
440.748	1995.4
440.937	2583.17
441.126	2525.83
441.316	2439.81
441.505	2077.32
441.695	3150.46
441.884	3736.18
442.073	2427.53
442.263	2206.35
442.452	3127.93
442.642	3388.02
442.831	2472.58
443.02	2910.85
443.21	4000.37
443.399	4354.66
443.588	2771.58
443.778	2962.05
443.967	4352.62
444.156	3752.56
444.346	2763.39
444.535	2869.89
444.725	4432.49
444.914	3924.59
445.103	3056.25
445.293	3363.45
445.482	4491.88
445.671	4295.27
445.861	3361.4
446.05	3574.39
446.239	4516.45
446.429	4117.1
446.618	3406.45
446.807	3621.49
446.997	4790.88
447.186	4754.02
447.376	3734.13
447.565	3891.82
447.754	4950.62
447.944	4991.58
448.133	3635.83
448.322	3656.31
448.512	4557.41
448.701	4919.9
448.891	3803.76
449.08	3644.02
449.269	4080.24
449.459	4168.3
449.648	3689.07
449.838	3791.47
450.027	4401.77
450.217	4317.8
450.406	3574.39
450.595	3943.02
450.785	4622.95
450.974	4641.38
451.164	3564.15
451.353	3795.57
451.543	4581.99
451.732	4903.52
451.922	3426.93
452.111	3461.75
452.301	3846.77
452.49	3824.24
452.68	3160.7
452.869	3781.23
453.059	3963.5
453.249	4551.27
453.438	3039.87
453.628	3349.11
453.817	4209.26
454.007	4289.13
454.197	2951.81
454.386	3230.33
454.576	4610.66
454.765	4430.44
454.955	3385.97
455.145	2972.29
455.334	3988.08
455.524	3615.35
455.714	3435.13
455.904	3070.59
456.093	4809.31
456.283	3983.98
456.473	3170.94
456.663	3035.77
456.852	3996.27
457.042	4205.16
457.232	2996.86
457.422	3633.78
457.612	4174.44
457.802	4223.59
457.991	2738.82
458.181	2869.89
458.371	4133.48
458.561	4018.8
458.751	3035.77
458.941	2828.93
459.131	3965.55
459.321	3680.88
459.511	3232.38
459.701	3154.55
459.891	3961.45
460.081	3385.97
460.271	3086.97
460.461	2988.67
460.651	4622.95
460.841	4553.32
461.032	3097.21
461.222	2980.48
461.412	3918.45
461.602	4829.79
461.792	2732.67
461.983	2851.46
462.173	4080.24
462.363	4659.81
462.554	3060.35
462.744	3086.97
462.934	4401.77
463.125	3957.36
463.315	2855.55
463.505	3166.84
463.696	4199.02
463.886	3607.16
464.077	2919.04
464.267	2902.65
464.458	4360.81
464.648	3754.61
464.839	3213.95
465.03	2966.14
465.22	3394.17
465.411	4016.75
465.601	2933.37
465.792	2945.66
465.983	3852.91
466.174	4117.1
466.364	2747.01
466.555	2984.57
466.746	4129.39
466.937	3625.59
467.128	2919.04
467.319	2894.46
467.51	4162.16
467.701	4999.77
467.891	2939.52
468.082	2861.7
468.274	3885.68
468.465	3471.99
468.656	3015.29
468.847	2787.97
469.038	3678.83
469.229	3828.34
469.42	3181.18
469.612	2992.77
469.803	4156.01
469.994	4051.56
470.185	3185.27
470.377	2919.04
470.568	4182.63
470.76	4227.69
470.951	3070.59
471.142	3390.07
471.334	4293.23
471.526	4010.61
471.717	3435.13
471.909	2962.05
472.1	4143.72
472.292	4342.38
472.484	2996.86
472.675	3250.81
472.867	4299.37
473.059	4887.14
473.251	3377.78
473.443	3476.09
473.635	4436.58
473.826	4504.17
474.018	3373.69
474.21	3426.93
474.402	4483.69
474.595	4860.51
474.787	3535.48
474.979	3795.57
475.171	4373.1
475.363	4070
475.555	3512.95
475.748	3801.71
475.94	5149.28
476.132	4618.85
476.325	3902.06
476.517	4373.1
476.71	5786.19
476.902	4715.11
477.095	3887.73
477.287	4373.1
477.48	5216.86
477.673	5126.75
477.865	4237.93
478.058	4182.63
478.251	5331.55
478.444	5702.23
478.636	4289.13
478.829	4106.86
479.022	5433.94
479.215	5409.37
479.408	4797.03
479.601	5069.41
479.794	5130.84
479.988	5339.74
480.181	4954.72
480.374	4803.17
480.567	5902.93
480.76	6269.52
480.954	4827.75
481.147	4672.1
481.341	5722.71
481.534	5618.26
481.728	5180
481.921	5503.57
482.115	6310.47
482.308	6617.67
482.502	5065.31
482.696	5329.5
482.89	7123.52
483.084	6466.12
483.277	5411.42
483.471	5599.83
483.665	6785.6
483.859	7531.06
484.053	5198.43
484.247	5376.6
484.442	6515.27
484.636	6550.09
484.83	5935.7
485.024	5958.22
485.219	6851.14
485.413	6656.58
485.608	5833.3
485.802	6107.73
485.997	7399.99
486.191	7086.65
486.386	6167.12
486.58	6478.41
486.775	7350.84
486.97	7746.1
487.165	6232.65
487.36	6457.93
487.555	7615.03
487.75	7369.27
487.945	6785.6
488.14	6380.11
488.335	7481.91
488.53	7502.39
488.725	6638.15
488.92	6933.06
489.116	8301.1
489.311	7983.66
489.507	6771.27
489.702	7518.78
489.898	8604.2
490.093	7911.99
490.289	7744.05
490.485	7133.76
490.68	7881.27
490.876	8708.65
491.072	7139.9
491.268	7662.13
491.464	8669.73
491.66	8854.05
491.856	7871.03
492.052	8315.44
492.248	9148.96
492.445	8690.21
492.641	7742
492.837	7670.33
493.034	9335.32
493.23	9396.76
493.427	8505.9
493.623	8165.93
493.82	9280.03
494.017	9859.6
494.214	7954.99
494.41	8299.05
494.607	9234.97
494.804	9034.27
495.001	8538.66
495.198	8571.43
495.395	9861.65
495.593	9839.12
495.79	8264.24
495.987	8466.99
496.184	9230.88
496.382	9996.82
496.579	8589.86
496.777	8600.1
496.974	10543.63
497.172	10054.16
497.37	8950.31
497.568	8702.5
497.766	10789.38
497.963	10267.15
498.161	8882.72
498.359	9200.16
498.558	10770.95
498.756	10390.03
498.954	9146.91
499.152	9904.66
499.351	10512.91
499.549	10390.03
499.747	9382.43
499.946	9351.71
500.145	10484.23
500.343	10424.84
500.542	9640.47
500.741	9581.08
500.94	10842.63
501.139	10955.27
501.338	9693.72
501.537	10119.7
501.736	11381.25
501.935	11153.92
502.134	9460.25
502.334	10113.55
502.533	11389.44
502.733	11176.45
502.932	10201.61
503.132	10252.81
503.331	10906.12
503.531	11665.91
503.731	10488.33
503.931	10267.15
504.131	11102.72
504.331	11706.87
504.531	10443.28
504.731	10529.29
504.931	11540.99
505.132	11489.79
505.332	10803.72
505.532	10598.92
505.733	12079.6
505.933	12474.86
506.134	10682.89
506.335	10635.78
506.536	11467.26
506.736	12278.26
506.937	10957.32
507.138	10969.6
507.34	12927.46
507.541	11782.65
507.742	11606.52
507.943	10859.01
508.145	12351.98
508.346	11686.39
508.548	10945.03
508.749	11194.88
508.951	11737.59
509.153	12106.23
509.354	11459.07
509.556	11512.32
509.758	12700.14
509.96	11985.4
510.163	11790.84
510.365	11569.66
510.567	12225.01
510.769	12569.07
510.972	11547.13
511.174	11915.76
511.377	12106.23
511.58	13367.77
511.782	11594.23
511.985	11758.07
512.188	13459.93
512.391	13064.68
512.594	11624.95
512.797	12274.16
513.001	13185.51
513.204	13730.27
513.407	12159.47
513.611	11956.72
513.814	13412.83
514.018	13478.36
514.222	12300.78
514.425	12392.94
514.629	13304.29
514.833	13335.01
515.037	12483.05
515.241	12112.37
515.445	12956.13
515.65	12988.9
515.854	12544.49
516.059	12544.49
516.263	13703.64
516.468	13703.64
516.672	12511.72
516.877	12696.04
517.082	13068.77
517.287	13707.74
517.492	12884.45
517.697	12841.45
517.902	13908.44
518.107	13597.15
518.313	12841.45
518.518	12945.89
518.724	14363.09
518.929	13765.08
519.135	13089.25
519.341	12577.26
519.547	14039.51
519.753	14227.92
519.959	13083.11
520.165	13218.27
520.371	14600.65
520.577	14819.78
520.784	12716.52
520.99	13191.65
521.197	14260.69
521.404	14379.47
521.61	13072.87
521.817	13248.99
522.024	15061.44
522.231	14258.64
522.438	12851.69
522.645	13971.93
522.853	14383.57
523.06	14668.23
523.268	13504.99
523.475	13578.72
523.683	14432.72
523.891	14830.02
524.098	13320.67
524.306	13701.59
524.514	14746.06
524.722	14678.47
524.931	13715.93
525.139	13810.14
525.347	14141.91
525.556	14805.45
525.764	13935.06
525.973	13930.97
526.182	14889.42
526.391	14733.77
526.6	13769.18
526.809	14029.27
527.018	14764.49
527.227	15131.08
527.436	14270.93
527.646	13836.76
527.855	15442.37
528.065	14901.7
528.275	14111.19
528.484	14025.17
528.694	15507.9
528.904	15241.67
529.114	14076.37
529.325	14311.89
529.535	14920.14
529.745	15428.03
529.956	14506.45
530.166	14406.09
530.377	15546.81
530.588	16050.61
530.799	14862.79
531.01	14686.67
531.221	15823.29
531.432	15884.73
531.643	14686.67
531.855	15051.2
532.066	15913.4
532.278	15903.16
532.489	14840.26
532.701	14717.39
532.913	16067
533.125	15854.01
533.337	14633.42
533.549	14920.14
533.762	16169.4
533.974	15591.87
534.186	14606.8
534.399	14862.79
534.612	16353.71
534.825	16069.05
535.037	15266.24
535.25	15577.53
535.464	15600.06
535.677	16497.07
535.89	14965.19
536.104	15514.05
536.317	16060.85
536.531	16099.77
536.744	15272.39
536.958	15395.26
537.172	16316.85
537.386	16105.91
537.6	15348.16
537.815	15378.88
538.029	16800.17
538.244	16427.44
538.458	15274.43
538.673	15360.45
538.888	16806.31
539.103	16943.53
539.318	15888.82
539.533	15518.14
539.748	16490.93
539.963	16241.07
540.179	15356.35
540.394	15546.81
540.61	16062.9
540.826	16646.57
541.042	15512
541.258	15677.88
541.474	17316.26
541.69	16843.18
541.906	15991.22
542.123	15647.16
542.339	17004.97
542.556	16615.85
542.773	15657.4
542.99	16130.48
543.207	16959.91
543.424	16611.76
543.641	16167.35
543.858	16325.04
544.076	16667.05
544.293	16787.88
544.511	16230.84
544.729	15886.78
544.947	17111.46
545.165	17256.87
545.383	16353.71
545.601	15829.43
545.819	17318.31
546.038	17185.19
546.256	16488.88
546.475	16558.51
546.694	18151.83
546.913	17910.17
547.132	17189.28
547.351	16595.37
547.57	17441.18
547.79	17377.7
548.009	16826.79
548.229	16877.99
548.449	17813.91
548.668	18145.69
548.888	17226.15
549.109	16849.32
549.329	18147.73
549.549	18104.73
549.77	17017.25
549.99	17389.99
550.211	18268.56
550.432	18870.67
550.653	17066.41
550.874	17377.7
551.095	18794.89
551.316	18211.22
551.538	17480.1
551.759	17435.04
551.981	18362.77
552.203	18772.36
552.424	17269.16
552.646	17895.83
552.869	18520.46
553.091	18809.23
553.313	17922.46
553.536	17826.2
553.758	19087.75
553.981	18819.47
554.204	17852.83
554.427	18252.18
554.65	19380.61
554.873	18325.91
555.097	17885.59
555.32	18160.02
555.544	19921.27
555.768	19337.6
555.992	18448.79
556.216	18094.49
556.44	18753.93
556.664	19620.22
556.888	18803.08
557.113	18395.54
557.337	20210.04
557.562	20164.98
557.787	18612.62
558.012	18504.08
558.237	19769.72
558.462	19532.16
558.688	19024.26
558.913	18780.56
559.139	19419.52
559.365	20140.41
559.591	18968.97
559.817	19095.94
560.043	20408.69
560.269	20386.16
560.496	19360.13
560.722	19229.06
560.949	20681.07
561.176	19976.57
561.403	19483.01
561.63	19390.85
561.857	20308.34
562.084	20150.65
562.312	19394.95
562.539	19513.73
562.767	21516.64
562.995	20685.17
563.223	19507.58
563.451	20058.49
563.679	20902.25
563.908	20830.57
564.136	20085.11
564.365	20009.34
564.594	20795.76
564.823	22360.41
565.052	20584.82
565.281	20156.79
565.51	21365.09
565.74	21348.71
565.969	20203.89
566.199	20644.21
566.429	21582.18
566.659	21600.61
566.889	20560.24
567.119	20601.2
567.35	22229.34
567.58	22157.66
567.811	21094.76
568.042	20810.09
568.273	21889.37
568.504	22217.05
568.735	21072.23
568.966	21274.98
569.198	21827.93
569.43	22514
569.661	21389.67
569.893	21682.53
570.125	23109.96
570.358	22554.96
570.59	21526.88
570.822	21670.24
571.055	22831.44
571.288	22968.65
571.521	21635.42
571.754	21952.86
571.987	23361.86
572.22	22929.74
572.454	22133.08
572.687	22053.21
572.921	22274.39
573.155	23103.82
573.389	22696.27
573.623	22317.4
573.858	22833.49
574.092	23601.47
574.327	22358.36
574.561	22696.27
574.796	23144.78
575.031	23431.49
575.266	22253.91
575.502	22559.06
575.737	23818.56
575.973	23648.58
576.209	23097.67
576.445	22896.97
576.681	23540.04
576.917	24058.17
577.153	22798.67
577.39	23255.37
577.626	23974.2
577.863	23875.9
578.1	22831.44
578.337	23042.38
578.574	23914.81
578.812	24500.53
579.049	23589.19
579.287	23038.28
579.525	24174.91
579.763	24533.3
580.001	23112.01
580.239	23810.37
580.478	24926.51
580.716	24379.7
580.955	23767.36
581.194	23652.67
581.433	24734
581.672	24631.6
581.911	23638.34
582.151	24021.31
582.39	24611.12
582.63	25061.68
582.87	23677.25
583.11	23941.44
583.35	24285.5
583.591	24801.58
583.831	24080.7
584.072	24555.83
584.313	24930.61
584.554	24783.15
584.795	24328.5
585.036	24179
585.277	26087.71
585.519	25395.5
585.761	23789.89
586.003	24310.07
586.245	25321.77
586.487	25813.28
586.729	24647.99
586.972	24199.48
587.215	26073.37
587.457	24992.05
587.7	24824.11
587.944	24523.06
588.187	25254.19
588.43	25428.26
588.674	24619.31
588.918	24600.88
589.162	25825.57
589.406	25399.59
589.65	24627.51
589.894	25338.15
590.139	26007.84
590.384	25708.83
590.629	24273.21
590.874	25020.72
591.119	25538.85
591.364	26005.79
591.61	24586.55
591.855	24420.66
592.101	26573.08
592.347	25846.05
592.593	25004.33
592.84	25221.42
593.086	26712.34
593.333	25444.65
593.58	24924.46
593.827	24561.97
594.074	25598.24
594.321	25833.76
594.568	24918.32
594.816	24621.36
595.064	25776.42
595.312	25975.07
595.56	24920.37
595.808	25383.21
596.057	25876.77
596.305	26061.08
596.554	24662.32
596.803	25014.57
597.052	26079.52
597.301	26396.95
597.551	24561.97
597.8	25604.39
598.05	26116.38
598.3	25878.82
598.55	24906.03
598.8	25002.29
599.051	25688.35
599.301	25731.36
599.552	24684.85
599.803	25608.48
600.054	26032.41
600.305	26034.46
600.556	25106.73
600.808	24979.76
601.06	25606.44
601.312	26216.73
601.564	25202.99
601.816	24580.4
602.068	26695.96
602.321	26548.5
602.574	25069.87
602.827	24527.16
603.08	25975.07
603.333	26491.16
603.587	24715.57
603.84	24963.37
604.094	26292.51
604.348	25461.03
604.602	24707.38
604.856	25000.24
605.111	25841.95
605.365	26208.54
605.62	24764.72
605.875	24895.79
606.13	26233.11
606.386	25948.45
606.641	25014.57
606.897	24889.65
607.153	25422.12
607.409	26403.1
607.665	24811.82
607.921	24690.99
608.178	25725.22
608.435	25714.98
608.692	24725.81
608.949	24717.62
609.206	26140.96
609.463	25817.38
609.721	25260.33
609.979	25141.55
610.237	25639.2
610.495	25942.3
610.753	25356.58
611.012	25340.2
611.27	26202.39
611.529	25882.91
611.788	24987.95
612.047	24922.41
612.307	25332.01
612.566	26310.94
612.826	24631.6
613.086	24680.75
613.346	24983.85
613.606	25866.53
613.867	24615.22
614.127	25119.02
614.388	24973.61
614.649	25731.36
614.91	24269.11
615.172	24678.71
615.433	25045.29
615.695	25059.63
615.957	24568.12
616.219	24498.48
616.481	25774.37
616.743	25024.81
617.006	23851.33
617.269	24621.36
617.532	25749.79
617.795	25317.67
618.058	23916.86
618.322	24021.31
618.586	24942.89
618.849	24629.55
619.114	24191.29
619.378	23540.04
619.642	24865.07
619.907	25207.08
620.172	23824.7
620.437	24101.18
620.702	25221.42
620.967	24256.82
621.233	23517.51
621.499	23499.08
621.765	24351.03
622.031	24379.7
622.297	23329.09
622.564	23214.41
622.83	24074.56
623.097	24748.34
623.364	23513.41
623.631	23228.74
623.899	24123.71
624.166	24035.64
624.434	22808.91
624.702	22759.76
624.97	24009.02
625.239	23677.25
625.507	22442.32
625.776	23026
626.045	23372.1
626.314	23796.03
626.584	22630.74
626.853	22745.42
627.123	23484.74
627.393	22770
627.663	22466.9
627.933	22317.4
628.204	23671.11
628.474	23363.91
628.745	21877.08
629.016	22526.29
629.287	23261.51
629.559	22755.66
629.83	21621.09
630.102	21891.42
630.374	22477.14
630.646	23560.52
630.919	21823.84
631.191	21983.58
631.464	22376.79
631.737	21983.58
632.01	21215.59
632.284	21287.27
632.557	22864.21
632.831	22305.11
633.105	21131.62
633.379	21191.02
633.654	21588.32
633.928	21965.15
634.203	20748.65
634.478	20894.06
634.753	22135.13
635.028	21846.37
635.304	21242.21
635.58	20613.49
635.856	21125.48
636.132	21410.15
636.408	20509.04
636.685	20347.25
636.961	21623.14
637.238	21207.4
637.515	20308.34
637.793	20298.1
638.07	21186.92
638.348	20834.67
638.626	20463.99
638.904	20005.24
639.182	20461.94
639.461	20097.4
639.74	19724.67
640.019	19888.51
640.298	19761.53
640.577	20486.51
640.857	19319.17
641.136	19286.4
641.416	20044.15
641.696	20859.24
641.977	19263.88
642.257	19282.31
642.538	20173.17
642.819	20599.15
643.1	18915.72
643.382	18299.28
643.663	20009.34
643.945	19888.51
644.227	18600.33
644.509	18532.75
644.792	20111.74
645.074	19276.16
645.357	18205.08
645.64	18180.5
645.923	19306.88
646.207	19179.91
646.49	17977.75
646.774	17691.04
647.058	18815.37
647.342	19116.42
647.627	17553.82
647.911	17723.8
648.196	18788.75
648.481	18676.11
648.767	17650.08
649.052	17492.38
649.338	17936.79
649.624	18178.45
649.91	17197.48
650.196	16939.43
650.483	18198.93
650.77	18389.39
651.057	17160.61
651.344	17107.37
651.631	17899.93
651.919	17729.95
652.207	16816.55
652.495	16921
652.783	17738.14
653.071	17598.88
653.36	15929.78
653.649	16380.34
653.938	17072.55
654.227	17254.82
654.517	16316.85
654.806	16165.3
655.096	16603.57
655.387	17312.16
655.677	15735.23
655.968	15960.5
656.258	16271.79
656.549	16931.24
656.841	16009.65
657.132	15436.22
657.424	16409.01
657.716	16423.34
658.008	15014.34
658.3	15212.99
658.592	16144.82
658.885	16427.44
659.178	14885.32
659.471	14983.62
659.765	15266.24
660.058	16015.8
660.352	14756.3
660.646	14850.5
660.94	16218.55
661.235	15610.3
661.53	14887.37
661.824	14227.92
662.12	15460.8
662.415	14711.24
662.711	14166.48
663.006	14420.43
663.302	14967.24
663.599	14643.66
663.895	13990.36
664.192	14328.27
664.489	15008.2
664.786	15008.2
665.083	13486.56
665.381	13697.5
665.678	14408.14
665.976	14873.03
666.275	12964.32
666.573	13486.56
666.872	13918.68
667.171	14326.22
667.47	13156.83
667.769	12827.11
668.069	14160.34
668.368	14248.4
668.668	12650.99
668.969	12612.07
669.269	13429.21
669.57	13418.97
669.871	12618.22
670.172	12743.14
670.473	13832.66
670.775	13711.83
671.077	12351.98
671.379	12233.2
671.681	13466.08
671.983	13232.61
672.286	12042.74
672.589	12308.97
672.892	12921.32
673.196	13011.43
673.499	11700.73
673.803	11741.69
674.107	12909.03
674.411	12544.49
674.716	11635.19
675.021	11332.09
675.326	12401.13
675.631	12763.62
675.936	11143.68
676.242	11379.2
676.548	11706.87
676.854	12603.88
677.16	10738.18
677.467	11149.82
677.774	11883
678.081	11758.07
678.388	11231.74
678.696	11110.91
679.004	12059.12
679.312	12151.28
679.62	10373.64
679.928	10832.39
680.237	12085.75
680.546	10983.94
680.855	10430.99
681.164	10361.36
681.474	11168.26
681.784	11237.89
682.094	10168.85
682.404	10056.21
682.715	11473.4
683.026	10482.19
683.337	9689.62
683.648	9972.24
683.959	11307.52
684.271	10824.2
684.583	9542.17
684.895	9419.29
685.208	10734.09
685.52	10576.39
685.833	9656.86
686.146	9386.52
686.46	10856.97
686.773	10287.63
687.087	9411.1
687.401	8944.16
687.716	10236.43
688.03	10357.26
688.345	8837.67
688.66	9093.66
688.975	10207.76
689.291	10099.22
689.607	9386.52
689.923	8659.49
690.239	9730.58
690.555	9873.94
690.872	8481.32
691.189	8200.75
691.506	9521.69
691.824	9865.75
692.142	8157.74
692.459	8276.52
692.778	9089.57
693.096	9433.63
693.415	8548.9
693.734	8096.3
694.053	8962.59
694.372	8761.89
694.692	7692.85
695.012	8176.17
695.332	8575.53
695.652	8778.28
695.973	8000.05
696.294	7817.78
696.615	8303.15
696.936	9108
697.258	7193.15
697.579	7567.93
697.902	8127.02
698.224	8317.48
698.546	7412.28
698.869	7174.72
699.192	7985.71
699.516	8725.03
699.839	7144
700.163	7270.97
700.487	7699
700.811	8628.77
701.136	6607.43
701.461	6869.57
701.786	7940.66
702.111	8546.86
702.436	6658.63
702.762	6974.02
703.088	7952.95
703.415	8481.32
703.741	6709.83
704.068	6482.5
704.395	7391.8
704.722	7852.59
705.05	6486.6
705.377	6392.39
705.705	7371.32
706.034	7383.61
706.362	6048.33
706.691	6165.07
707.02	7625.27
707.349	7326.27
707.679	6226.51
708.009	6015.57
708.339	7166.53
708.669	7146.05
709	6105.68
709.33	5765.71
709.661	6912.58
709.993	6691.4
710.324	5976.66
710.656	5804.63
710.988	6910.53
711.321	7066.17
711.653	5374.55
711.986	5847.63
712.319	5999.18
712.652	6840.9
712.986	5925.46
713.32	5427.8
713.654	7014.98
713.988	6693.44
714.323	5370.46
714.658	5182.04
714.993	6312.52
715.328	6156.88
715.664	5388.89
716	5495.38
716.336	6662.73
716.673	5872.21
717.009	5423.7
717.346	5171.8
717.683	6584.9
718.021	6046.29
718.359	4901.47
718.697	4792.93
719.035	5794.39
719.373	5698.13
719.712	4858.46
720.051	4645.48
720.39	5997.14
720.73	5655.12
721.07	4813.41
721.41	4786.79
721.75	5884.5
722.091	5769.81
722.432	4483.69
722.773	4967.01
723.114	5528.15
723.456	5552.73
723.798	4485.73
724.14	4510.31
724.482	5237.34
724.825	5640.79
725.168	4508.26
725.511	4375.14
725.855	5343.83
726.198	5159.52
726.542	4135.53
726.887	4577.89
727.231	5581.4
727.576	4616.8
727.921	4385.38
728.266	3885.68
728.612	5102.17
728.958	5341.79
729.304	3934.83
729.651	4369
729.997	4680.29
730.344	4823.65
730.691	3709.55
731.039	4164.2
731.387	4825.7
731.735	4498.02
732.083	3738.23
732.431	4063.85
732.78	4543.08
733.129	3988.08
733.479	3572.34
733.828	3746.42
734.178	4330.09
734.528	4067.95
734.879	3566.2
735.23	3607.16
735.581	4620.9
735.932	4356.71
736.283	3517.05
736.635	3271.29
736.987	4700.77
737.34	4584.04
737.692	3410.55
738.045	3197.56
738.398	4182.63
738.752	4344.42
739.105	3062.4
739.459	3545.72
739.814	4450.92
740.168	4409.96
740.523	2943.61
740.878	3318.39
741.233	3992.17
741.589	4248.17
741.945	3043.96
742.301	3025.53
742.657	4369
743.014	3822.19
743.371	2941.57
743.728	3598.96
744.086	3797.62
744.444	3699.31
744.802	2704
745.16	2890.37
745.519	3895.92
745.878	3627.64
746.237	2613.89
746.597	3013.24
746.956	4260.46
747.316	3639.92
747.677	2583.17
748.037	2818.69
748.398	3525.24
748.759	3633.78
749.121	2900.61
749.482	2945.66
749.844	3385.97
750.207	3035.77
750.569	2208.39
750.932	2781.82
751.295	4016.75
751.659	3445.37
752.022	2228.87
752.386	2976.38
752.751	3228.28
753.115	2884.22
753.48	2390.66
753.845	2464.39
754.21	3377.78
754.576	3232.38
754.942	2028.17
755.308	2534.02
755.675	3095.16
756.041	3594.87
756.409	2058.89
756.776	2224.78
757.144	3684.98
757.511	3445.37
757.88	2103.95
758.248	1815.18
758.617	2501.25
758.986	3025.53
759.355	2263.69
759.725	2126.47
760.095	2634.37
760.465	3320.44
760.836	1870.48
761.206	1976.97
761.577	3357.3
761.949	2538.12
762.32	2151.05
762.692	1878.67
763.065	2710.15
763.437	2726.53
763.81	1653.39
764.183	1829.52
764.556	3215.99
764.93	2714.24
765.304	2228.87
765.678	2026.12
766.053	2626.18
766.428	2693.76
766.803	1546.9
767.178	1680.02
767.554	2136.71
767.93	2273.93
768.306	1600.15
768.683	1569.43
769.06	2843.26
769.437	2431.62
769.814	1460.88
770.192	1464.98
770.57	2460.29
770.948	3246.71
771.327	1651.35
771.706	1411.73
772.085	2570.88
772.464	2882.17
772.844	1651.35
773.224	1329.81
773.605	2024.08
773.985	2169.48
774.366	1378.97
774.748	1850
775.129	2652.8
775.511	2427.53
775.893	1456.79
776.276	1442.45
776.658	2706.05
777.041	2286.22
777.425	1141.4
777.808	1247.9
778.192	2050.7
778.576	2648.71
778.961	942.75
779.346	1247.9
779.731	2511.49
780.116	1680.02
780.502	1284.76
780.888	1135.26
781.274	2116.23
781.661	1876.62
782.048	987.8
782.435	1020.57
782.823	1985.16
783.21	2151.05
783.598	1247.9
783.987	1141.4
784.376	2421.38
784.765	1714.83
785.154	1145.5
785.544	907.93
785.933	2151.05
786.324	1776.27
786.714	1149.59
787.105	965.28
787.496	1897.1
787.888	1763.98
788.279	797.34
788.671	926.36
789.064	1866.38
789.456	1954.44
789.849	834.21
790.242	699.04
790.636	1684.11
791.03	1981.07
791.424	719.52
791.818	1407.64
792.213	2151.05
792.608	1858.19
793.004	985.76
793.399	465.57
793.795	1741.46
794.192	1651.35
794.588	766.62
794.985	502.44
795.382	1784.46
795.78	1600.15
796.178	846.49
796.576	676.51
796.974	2308.74
797.373	1780.37
797.772	674.46
798.172	592.55
798.571	1634.96
798.971	2042.51
799.372	750.24
799.772	701.09
800.173	1886.86
800.574	1610.39
800.976	645.79
801.378	400.04
801.78	1256.09
802.182	1104.54
802.585	649.89
802.988	639.65
803.392	1329.81
803.795	1190.55
804.199	391.84
804.604	803.49
805.008	1700.5
805.413	1993.36
805.819	588.45
806.224	309.93
806.63	1522.32
807.036	1575.57
807.443	588.45
807.85	600.74
808.257	1469.08
808.664	1477.27
809.072	858.78
809.48	719.52
809.889	1723.02
810.297	1518.23
810.706	774.81
811.116	484
811.526	1311.38
811.936	1225.37
812.346	373.41
812.757	432.8
813.167	1362.58
813.579	1075.87
813.99	412.32
814.402	279.21
814.814	1866.38
815.227	1161.88
815.64	109.23
816.053	326.31
816.467	1538.71
816.88	1344.15
817.294	469.67
817.709	576.16
818.124	1135.26
818.539	1784.46
818.954	385.7
819.37	674.46
819.786	866.97
820.202	1419.93
820.619	-120.15
821.036	199.34
821.453	1548.95
821.871	1274.52
822.289	250.53
822.707	150.18
823.126	1340.05
823.545	717.47
823.964	148.14
824.384	123.56
824.804	922.27
825.224	1227.42
825.645	594.59
826.065	-1.37
826.487	1442.45
826.908	1391.25
827.33	223.91
827.752	578.21
828.175	1127.07
828.598	1323.67
829.021	381.6
829.444	856.73
829.868	1264.28
830.292	748.19
830.717	-5.46
831.142	92.84
831.567	852.64
831.992	1067.67
832.418	723.62
832.844	-116.05
833.27	1145.5
833.697	1045.15
834.124	-152.91
834.552	-154.96
834.979	1534.61
835.408	1249.94
835.836	-114
836.265	187.05
836.694	834.21
837.123	1196.7
837.553	-120.15
837.983	-161.11
838.413	1176.22
838.844	1141.4
839.275	-134.48
839.706	285.35
840.138	1579.67
840.57	666.27
841.003	-17.75
841.435	174.76
841.868	881.31
842.302	758.43
842.735	55.98
843.169	-144.72
843.604	885.41
844.039	1020.57
844.474	-116.05
844.909	-66.9
845.345	1002.14
845.781	1002.14
846.217	-210.26
846.654	-275.79
847.091	1084.06
847.528	813.73
847.966	-148.82
848.404	-118.1
848.842	1501.84
849.281	252.58
849.72	35.5
850.16	-159.06
850.599	684.7
851.039	500.39
851.48	178.86
851.921	-56.66
852.362	934.56
852.803	1309.33
853.245	-347.47
853.687	-64.85
854.129	1104.54
854.572	645.79
855.015	-224.59
855.459	-251.22
855.903	617.12
856.347	946.84
856.791	-44.37
857.236	-111.96
857.681	1346.2
858.127	1608.34
858.572	119.46
859.019	-202.07
859.465	1018.52
859.912	778.91
860.359	-255.31
860.807	-259.41
861.255	633.51
861.703	1047.19
862.151	-128.34
862.6	340.65
863.05	887.45
863.499	488.1
863.949	-159.06
864.4	-361.81
864.85	1301.14
865.301	1043.1
865.752	-234.83
866.204	-232.79
866.656	551.59
867.109	1135.26
867.561	-316.75
868.014	43.69
868.468	1014.43
868.921	1020.57
869.376	-157.01
869.83	-300.37
870.285	850.59
870.74	424.61
871.195	-5.46
871.651	-165.2
872.107	1227.42
872.564	623.27
873.021	-445.77
873.478	-423.25
873.936	965.28
874.394	1020.57
874.852	-177.49
875.31	-3.41
875.769	776.86
876.229	1223.32
876.688	-136.53
877.148	-234.83
877.609	633.51
878.069	551.59
878.531	-54.61
878.992	-492.88
879.454	643.74
879.916	756.38
880.378	-224.59
880.841	-296.27
881.304	98.99
881.768	250.53
882.232	-396.62
882.696	-73.04
883.161	297.64
883.626	780.96
884.091	-173.39
884.557	-329.04
885.023	256.68
885.489	1047.19
885.956	-562.51
886.423	-374.1
886.89	105.13
887.358	686.75
887.826	-320.85
888.295	-300.37
888.763	289.45
889.233	1186.46
889.702	-310.61
890.172	-378.19
890.642	494.24
891.113	404.13
891.584	68.27
892.055	-263.51
892.527	946.84
892.999	991.9
893.472	-333.14
893.944	-165.2
894.417	557.73
894.891	283.3
895.365	-99.67
895.839	-169.3
896.314	592.55
896.789	-177.49
897.264	-320.85
897.74	-570.7
898.216	957.08
898.692	789.15
899.169	-453.97
899.646	-511.31
900.123	682.66
900.601	1135.26
901.079	-494.93
901.558	-173.39
902.037	854.69
902.516	668.32
902.996	-605.52
903.476	-466.25
903.956	408.23
904.437	809.63
904.918	-427.34
905.399	-546.12
905.881	682.66
906.363	719.52
906.846	-636.24
907.329	-206.16
907.812	191.14
908.296	645.79
908.78	-570.7
909.264	-492.88
909.749	258.73
910.234	873.12
910.719	-482.64
911.205	-25.94
911.691	150.18
912.178	651.94
912.665	133.8
913.152	-402.77
913.64	285.35
914.128	748.19
914.616	-433.49
915.105	-382.29
915.594	639.65
916.084	1063.58
916.574	-267.6
917.064	-585.04
917.555	109.23
918.046	723.62
918.537	-19.8
919.029	-736.59
919.521	336.55
920.013	993.95
920.506	-249.17
920.999	-609.61
921.493	821.92
921.987	422.56
922.481	-259.41
922.976	-464.21
923.471	381.6
923.967	570.02
924.462	-333.14
924.959	-329.04
925.455	608.93
925.952	496.29
926.449	-574.8
926.947	-421.2
927.445	516.77
927.944	445.09
928.442	-685.39
928.942	-632.14
929.441	699.04
929.941	176.81
930.442	-558.41
930.942	-447.82
931.443	826.01
931.945	150.18
932.447	-558.41
932.949	-410.96
933.451	332.45
933.954	361.13
934.458	-265.55
934.961	-533.84
935.465	314.02
935.97	316.07
936.475	-275.79
936.98	-642.38
937.486	-87.38
937.992	301.73
938.498	-472.4
939.005	-396.62
939.512	187.05
940.019	586.4
940.527	-324.94
941.035	-279.89
941.544	715.42
942.053	457.38
942.562	-165.2
943.072	-95.57
943.582	735.9
944.093	424.61
944.604	-554.32
945.115	-552.27
945.627	889.5
946.139	881.31
946.651	-501.07
947.164	-353.62
947.677	535.2
948.191	535.2
948.705	-546.12
949.219	-564.56
949.734	207.53
950.249	699.04
950.765	-511.31
951.281	-503.12
951.797	1544.85
952.314	871.07
952.831	-503.12
953.348	-763.21
953.866	834.21
954.384	324.26
954.903	-552.27
955.422	-660.81
955.941	365.22
956.461	504.48
956.981	-611.66
957.502	-339.28
958.023	645.79
958.544	551.59
959.066	-437.58
959.588	-683.34
960.11	125.61
960.633	830.11
961.156	-574.8
961.68	-460.11
962.204	871.07
962.729	103.08
963.253	-542.03
963.779	86.7
964.304	608.93
964.83	858.78
965.357	-677.19
965.883	-370
966.411	377.51
966.938	731.81
967.466	-556.36
967.994	-701.77
968.523	256.68
969.052	858.78
969.582	-595.28
970.112	-550.22
970.642	105.13
971.173	809.63
971.704	-611.66
972.235	-304.46
972.767	543.39
973.3	373.41
973.832	-339.28
974.365	-722.25
974.899	553.63
975.433	514.72
975.967	-677.19
976.502	-281.94
977.037	371.37
977.572	860.83
978.108	-607.56
978.644	-804.17
979.181	1143.45
979.718	705.18
980.255	-937.29
980.793	-427.34
981.331	-263.51
981.87	758.43
982.409	-533.84
982.948	-359.76
983.488	332.45
984.028	844.45
984.569	-406.86
985.11	-453.97
985.651	813.73
986.193	627.36
986.735	-732.49
987.278	-636.24
987.821	-103.76
988.364	307.88
988.908	-394.58
989.452	-722.25
989.997	-322.9
990.542	508.58
991.088	-562.51
991.633	-177.49
992.18	303.78
992.726	-9.56
993.273	-443.73
993.821	-437.58
994.369	359.08
994.917	797.34
995.465	-771.4
996.014	-818.5
996.564	660.13
997.114	109.23
997.664	-275.79
998.215	-697.67
998.766	510.63
999.317	-97.62
999.869	-464.21
1000.421	-654.67
1000.974	668.32
1001.527	653.98
1002.081	-664.91
1002.635	-247.12
1003.189	414.37
1003.744	760.48
1004.299	-826.7
1004.854	-546.12
1005.41	776.86
1005.967	162.47
1006.523	-546.12
1007.081	-447.82
1007.638	490.15
1008.196	471.72
1008.755	-767.31
1009.313	-472.4
1009.873	703.14
1010.432	-50.52
1010.992	-355.66
1011.553	-394.58
1012.114	383.65
1012.675	-66.9
1013.237	-390.48
1013.799	-210.26
1014.361	543.39
1014.924	12.97
1015.487	-759.11
1016.051	-554.32
1016.615	756.38
1017.18	455.33
1017.745	-587.08
1018.31	-150.87
1018.876	883.36
1019.442	496.29
1020.009	-476.49
1020.576	-795.98
1021.143	293.54
1021.711	731.81
1022.28	-505.17
1022.848	-531.79
1023.417	821.92
1023.987	367.27
1024.557	-644.43
1025.127	-554.32
1025.698	-19.8
1026.269	-30.04
1026.841	-693.58
1027.413	-488.78
1027.985	232.1
1028.558	350.89
1029.131	-701.77
1029.705	-423.25
1030.279	402.08
1030.854	426.66
1031.429	-669
1032.004	-259.41
1032.58	692.9
1033.156	125.61
1033.733	-660.81
1034.31	-615.76
1034.887	639.65
1035.465	717.47
1036.043	-959.81
1036.622	-621.9
1037.201	297.64
1037.781	715.42
1038.361	-660.81
1038.941	-781.64
1039.522	486.05
1040.103	623.27
1040.685	-591.18
1041.267	-290.13
1041.85	1137.31
1042.433	586.4
1043.016	-699.72
1043.6	-531.79
1044.184	-283.98
1044.769	610.98
1045.354	-529.74
1045.939	-658.76
1046.525	406.18
1047.111	445.09
1047.698	-468.3
1048.285	-724.3
1048.873	504.48
1049.461	23.21
1050.049	-675.15
1050.638	-669
1051.228	72.36
1051.817	723.62
1052.407	-660.81
1052.998	-322.9
1053.589	545.44
1054.18	649.89
1054.772	-902.47
1055.365	-736.59
1055.957	455.33
1056.55	164.52
1057.144	-515.41
1057.738	-634.19
1058.333	195.24
1058.927	113.32
1059.523	-578.89
1060.118	-742.73
1060.715	2.73
1061.311	500.39
1061.908	-650.57
1062.506	-415.05
1063.103	502.44
1063.702	-17.75
1064.3	-881.99
1064.9	-712.01
1065.499	905.88
1066.099	60.07
1066.7	-554.32
1067.301	-791.88
1067.902	832.16
1068.504	785.05
1069.106	-390.48
1069.709	-482.64
1070.312	774.81
1070.915	486.05
1071.519	-689.48
1072.123	-404.82
1072.728	567.97
1073.333	250.53
1073.939	-253.27
1074.545	-636.24
1075.152	539.3
1075.759	66.22
1076.366	-707.91
1076.974	-363.86
1077.582	377.51
1078.191	727.71
1078.8	-546.12
1079.41	-869.7
1080.02	391.84
1080.63	314.02
1081.241	-175.44
1081.852	-855.37
1082.464	408.23
1083.076	535.2
1083.689	-613.71
1084.302	-566.6
1084.915	879.26
1085.529	576.16
1086.144	-660.81
1086.759	-501.07
1087.374	146.09
1087.99	289.45
1088.606	-666.96
1089.222	-552.27
1089.839	551.59
1090.457	324.26
1091.075	-515.41
1091.693	-857.42
1092.312	524.96
1092.931	772.77
1093.551	-623.95
1094.171	-304.46
1094.792	428.71
1095.413	135.85
1096.034	-482.64
1096.656	-599.37
1097.278	559.78
1097.901	281.25
1098.524	-648.52
1099.148	-374.1
1099.772	920.22
1100.397	387.75
1101.022	-851.27
1101.647	-574.8
1102.273	422.56
1102.899	664.22
1103.526	-890.18
1104.153	-380.24
1104.781	613.03
1105.409	789.15
1106.038	-740.68
1106.667	-873.8
1107.296	162.47
1107.926	158.38
1108.556	-179.54
1109.187	-580.94
1109.818	256.68
1110.45	543.39
1111.082	-478.54
1111.715	-615.76
1112.348	383.65
1112.981	195.24
1113.615	-277.84
1114.25	-470.35
1114.885	201.38
1115.52	244.39
1116.156	-871.75
1116.792	-619.85
1117.428	551.59
1118.066	103.08
1118.703	-210.26
1119.341	-574.8
1119.98	676.51
1120.618	846.49
1121.258	-681.29
1121.898	-857.42
1122.538	438.95
1123.179	-9.56
1123.82	-562.51
1124.461	-494.93
1125.103	715.42
1125.746	129.7
1126.389	-410.96
1127.032	-779.59
1127.676	490.15
1128.32	940.7
1128.965	-554.32
1129.61	-431.44
1130.256	185
1130.902	758.43
1131.549	-578.89
1132.196	-623.95
1132.844	764.58
1133.491	592.55
1134.14	-566.6
1134.789	-513.36
1135.438	1079.96
1136.088	178.86
1136.738	-742.73
1137.389	-802.12
1138.04	471.72
1138.692	1022.62
1139.344	-685.39
1139.996	-658.76
1140.649	504.48
1141.303	637.6
1141.957	-470.35
1142.611	-521.55
1143.266	400.04
1143.921	397.99
1144.577	-603.47
1145.233	-560.46
1145.89	90.79
1146.547	594.59
1147.205	-826.7
1147.863	-460.11
1148.521	494.24
1149.18	588.45
1149.84	-795.98
1150.5	-669
1151.16	305.83
1151.821	666.27
1152.482	-550.22
1153.144	-122.2
1153.806	453.28
1154.469	438.95
1155.132	-847.18
1155.796	-552.27
1156.46	600.74
1157.124	928.41
1157.789	-691.53
1158.455	-736.59
1159.121	395.94
1159.787	4.78
1160.454	-578.89
1161.121	-505.17
1161.789	211.62
1162.457	549.54
1163.126	-443.73
1163.795	-546.12
1164.465	430.76
1165.135	219.82
1165.806	-447.82
1166.477	-468.3
1167.148	-425.29
1167.82	436.9
1168.493	-816.46
1169.166	-445.77
1169.839	103.08
1170.513	402.08
1171.187	-767.31
1171.862	-656.72
1172.537	354.98
1173.213	365.22
1173.889	-703.82
1174.566	-666.96
1175.243	748.19
1175.921	277.16
1176.599	-499.02
1177.278	-324.94
1177.957	-5.46
1178.636	766.62
1179.316	-431.44
1179.997	-806.22
1180.678	531.11
1181.359	717.47
1182.041	-734.54
1182.723	-746.83
1183.406	711.33
1184.089	80.55
1184.773	-716.11
1185.457	-890.18
1186.142	117.42
1186.827	1120.92
1187.513	-812.36
1188.199	-267.6
1188.886	219.82
1189.573	471.72
1190.26	-701.77
1190.948	-699.72
1191.637	55.98
1192.326	211.62
1193.015	-628.04
1193.705	-757.07
1194.396	191.14
1195.087	357.03
1195.778	-423.25
1196.47	-746.83
1197.162	307.88
1197.855	479.91
1198.548	-599.37
1199.242	-838.98
1199.936	473.76
1200.631	608.93
1201.326	-855.37
1202.022	-759.11
1202.718	727.71
1203.415	445.09
1204.112	-890.18
1204.81	-562.51
1205.508	115.37
1206.206	996
1206.905	-585.04
1207.605	-726.35
1208.305	125.61
1209.005	524.96
1209.706	-734.54
1210.408	-759.11
1211.11	330.41
1211.812	522.91
1212.515	-552.27
1213.218	-552.27
1213.922	449.19
1214.627	273.06
1215.331	-615.76
1216.037	-494.93
1216.743	-48.47
1217.449	467.62
1218.156	-439.63
1218.863	-521.55
1219.571	236.2
1220.279	733.86
1220.988	-750.92
1221.697	-570.7
1222.406	559.78
1223.117	141.99
1223.827	-456.01
1224.538	-644.43
1225.25	354.98
1225.962	469.67
1226.675	-869.7
1227.388	-503.12
1228.101	322.21
1228.815	-9.56
1229.53	-562.51
1230.245	-546.12
1230.961	352.93
1231.677	281.25
1232.393	-652.62
1233.11	-523.6
1233.828	975.52
1234.546	424.61
1235.264	-650.57
1235.983	-353.62
1236.702	1114.78
1237.422	430.76
1238.143	-433.49
1238.864	-771.4
1239.585	770.72
1240.307	-152.91
1241.029	-847.18
1241.752	-410.96
1242.476	690.85
1243.2	856.73
1243.924	-503.12
1244.649	-552.27
1245.374	674.46
1246.1	864.93
1246.826	-838.98
1247.553	-574.8
1248.28	539.3
1249.008	584.35
1249.737	-781.64
1250.465	-458.06
1251.195	432.8
1251.925	709.28
1252.655	-669
1253.386	-318.8
1254.117	332.45
1254.849	164.52
1255.581	-626
1256.314	-572.75
1257.047	701.09
1257.781	578.21
1258.515	-701.77
1259.25	-210.26
1259.985	342.69
1260.721	387.75
1261.457	-578.89
1262.194	-785.74
1262.931	215.72
1263.669	742.05
1264.407	-558.41
1265.146	-722.25
1265.885	400.04
1266.625	228.01
1267.365	-669
1268.106	-664.91
1268.847	369.32
1269.589	109.23
1270.331	-404.82
1271.074	-441.68
1271.817	363.17
1272.561	400.04
1273.305	-456.01
1274.05	-431.44
1274.795	256.68
1275.541	330.41
1276.287	-890.18
1277.034	-804.17
1277.781	29.35
1278.529	584.35
1279.277	-873.8
1280.026	-853.32
1280.775	752.29
1281.525	-480.59
1282.275	-914.76
1283.026	-300.37
1283.777	383.65
1284.529	451.24
1285.281	-615.76
1286.034	-873.8
1286.788	731.81
1287.541	346.79
1288.296	-881.99
1289.051	-355.66
1289.806	418.47
1290.562	604.83
1291.318	-734.54
1292.075	-490.83
1292.832	670.37
1293.59	879.26
1294.349	-707.91
1295.108	-644.43
1295.867	1020.57
1296.627	502.44
1297.387	-830.79
1298.148	-482.64
1298.91	324.26
1299.672	109.23
1300.434	-693.58
1301.197	-841.03
1301.961	1315.48
1302.725	228.01
1303.489	-390.48
1304.254	-591.18
1305.02	494.24
1305.786	756.38
1306.552	-1002.82
1307.319	-836.94
1308.087	836.25
1308.855	832.16
1309.624	-689.48
1310.393	-558.41
1311.162	-165.2
1311.933	664.22
1312.703	-638.28
1313.474	-435.53
1314.246	295.59
1315.018	555.68
1315.791	-294.22
1316.564	-752.97
1317.338	570.02
1318.112	150.18
1318.887	-814.41
1319.662	-574.8
1320.438	445.09
1321.214	141.99
1321.991	-423.25
1322.769	-759.11
1323.546	379.56
1324.325	31.4
1325.104	-740.68
1325.883	-572.75
1326.663	-81.24
1327.444	494.24
1328.224	-709.96
1329.006	-456.01
1329.788	430.76
1330.571	352.93
1331.354	-456.01
1332.137	-738.63
1332.921	772.77
1333.706	-89.43
1334.491	-427.34
1335.277	-587.08
1336.063	121.51
1336.849	191.14
1337.637	-640.33
1338.424	-634.19
1339.213	940.7
1340.001	903.84
1340.791	-773.45
1341.581	-337.23
1342.371	477.86
1343.162	289.45
1343.953	-632.14
1344.745	-539.98
1345.537	387.75
1346.33	596.64
1347.124	-523.6
1347.918	-398.67
1348.712	828.06
1349.507	490.15
1350.303	-644.43
1351.099	-423.25
1351.896	129.7
1352.693	-267.6
1353.49	-576.84
1354.289	-572.75
1355.087	516.77
1355.887	715.42
1356.686	-437.58
1357.487	-646.48
1358.288	19.11
1359.089	193.19
1359.891	-173.39
1360.693	-570.7
1361.496	-202.07
1362.3	185
1363.104	-693.58
1363.908	-660.81
1364.713	864.93
1365.519	817.82
1366.325	-720.2
1367.131	-841.03
1367.939	277.16
1368.746	815.77
1369.555	-972.1
1370.363	-574.8
1371.173	803.49
1371.982	1190.55
1372.793	-775.5
1373.604	-1008.97
1374.415	567.97
1375.227	799.39
1376.039	-841.03
1376.852	-707.91
1377.666	1020.57
1378.48	387.75
1379.295	-808.26
1380.11	-888.14
1380.925	-32.08
1381.742	952.99
1382.558	-587.08
1383.376	-705.87
1384.193	436.9
1385.012	125.61
1385.831	-734.54
1386.65	-636.24
1387.47	-5.46
1388.29	195.24
1389.111	-605.52
1389.933	-861.51
1390.755	703.14
1391.578	395.94
1392.401	-787.79
1393.225	-656.72
1394.049	846.49
1394.873	187.05
1395.699	-693.58
1396.525	-478.54
1397.351	692.9
1398.178	-107.86
1399.005	-605.52
1399.833	-1051.97
1400.662	527.01
1401.491	930.46
1402.321	-537.93
1403.151	-554.32
1403.981	408.23
1404.813	524.96
1405.644	-415.05
1406.477	-709.96
1407.309	326.31
1408.143	1114.78
1408.977	-654.67
1409.811	-582.99
1410.646	871.07
1411.482	793.25
1412.318	-566.6
1413.155	-595.28
1413.992	545.44
1414.829	10.92
1415.668	-619.85
1416.506	-431.44
1417.346	729.76
1418.186	469.67
1419.026	-666.96
1419.867	-824.65
1420.709	608.93
1421.551	600.74
1422.393	-931.14
1423.236	-357.71
1424.08	473.76
1424.924	330.41
1425.769	-742.73
1426.614	-642.38
1427.46	553.63
1428.307	141.99
1429.154	-939.33
1430.001	-775.5
1430.849	338.6
1431.698	189.1
1432.547	-845.13
1433.397	-912.71
1434.247	629.41
1435.098	965.28
1435.949	-546.12
1436.801	-669
1437.653	158.38
1438.506	543.39
1439.36	-904.52
1440.214	-728.39
1441.069	563.87
1441.924	328.36
1442.78	-693.58
1443.636	-879.94
1444.493	166.57
1445.35	432.8
1446.208	-542.03
1447.067	-746.83
1447.926	400.04
1448.785	785.05
1449.645	-589.13
1450.506	-763.21
1451.367	510.63
1452.229	148.14
1453.091	-757.07
1453.954	-353.62
1454.818	185
1455.682	420.52
1456.546	-623.95
1457.412	-800.07
1458.277	692.9
1459.143	191.14
1460.01	-433.49
1460.878	-775.5
1461.745	395.94
1462.614	178.86
1463.483	-847.18
1464.352	-476.49
1465.223	721.57
1466.093	613.03
1466.964	-828.74
1467.836	-847.18
1468.709	709.28
1469.581	373.41
1470.455	-478.54
1471.329	-636.24
1472.203	127.66
1473.079	107.18
1473.954	-136.53
1474.831	-740.68
1475.707	158.38
1476.585	109.23
1477.463	-671.05
1478.341	-703.82
1479.22	-71
1480.1	422.56
1480.98	-931.14
1481.861	-822.6
1482.742	582.31
1483.624	721.57
1484.506	-505.17
1485.389	-533.84
1486.273	195.24
1487.157	201.38
1488.041	-757.07
1488.926	-879.94
1489.812	502.44
1490.699	383.65
1491.585	-738.63
1492.473	-611.66
1493.361	-181.59
1494.249	297.64
1495.139	-513.36
1496.028	-580.94
1496.919	-21.84
1497.809	412.32
1498.701	-742.73
1499.593	-646.48
1500.485	326.31
1501.378	703.14
1502.272	-161.11
1503.166	-617.8
1504.061	768.67
1504.956	502.44
1505.852	-607.56
1506.749	-806.22
1507.646	602.79
1508.543	395.94
1509.442	-873.8
1510.34	-154.96
1511.24	1034.91
1512.14	256.68
1513.04	-709.96
1513.941	-896.33
1514.843	1217.18
1515.745	-27.99
1516.648	-644.43
1517.551	-838.98
1518.455	-109.91
1519.359	-265.55
1520.264	-853.32
1521.17	-857.42
1522.076	234.15
1522.983	619.17
1523.89	-867.66
1524.798	-453.97
1525.706	273.06
1526.615	1354.39
1527.525	-861.51
1528.435	-642.38
1529.346	592.55
1530.257	109.23
1531.169	-386.38
1532.081	-814.41
1532.994	1084.06
1533.908	150.18
1534.822	-718.15
1535.737	-640.33
1536.652	486.05
1537.568	318.12
1538.484	-650.57
1539.401	-959.81
1540.319	909.98
1541.237	-68.95
1542.156	-849.22
1543.075	-787.79
1543.995	950.94
1544.916	1028.76
1545.837	-851.27
1546.758	-787.79
1547.68	625.31
1548.603	776.86
1549.527	-554.32
1550.451	-802.12
1551.375	420.52
1552.3	797.34
1553.226	-849.22
1554.152	-775.5
1555.079	850.59
1556.006	359.08
1556.934	-435.53
1557.863	-554.32
1558.792	899.74
1559.722	113.32
1560.652	-542.03
1561.583	-904.52
1562.514	-15.7
1563.446	135.85
1564.379	-1015.11
1565.312	-494.93
1566.246	692.9
1567.18	354.98
1568.115	-517.45
1569.051	-656.72
1569.987	764.58
1570.924	938.65
1571.861	-851.27
1572.799	-570.7
1573.737	649.89
1574.676	379.56
1575.616	-556.36
1576.556	-722.25
1577.497	-44.37
1578.438	223.91
1579.38	-777.55
1580.323	-642.38
1581.266	514.72
1582.21	807.58
1583.154	-652.62
1584.099	-779.59
1585.044	514.72
1585.99	666.27
1586.937	-390.48
1587.884	-605.52
1588.832	273.06
1589.78	883.36
1590.729	-617.8
1591.679	-447.82
1592.629	441
1593.58	520.87
1594.531	-636.24
1595.483	-525.65
1596.435	191.14
1597.388	-1.37
1598.342	-376.14
1599.296	-638.28
1600.251	508.58
1601.207	780.96
1602.163	-554.32
1603.119	-767.31
1604.077	772.77
1605.034	871.07
1605.993	-529.74
1606.952	-71
1607.911	228.01
1608.872	430.76
1609.832	-730.44
1610.794	-881.99
1611.756	592.55
1612.718	404.13
1613.681	-292.18
1614.645	-615.76
1615.609	649.89
1616.574	299.69
1617.54	-189.78
1618.506	-636.24
1619.472	727.71
1620.44	707.23
1621.408	-150.87
1622.376	-496.97
1623.345	283.3
1624.315	690.85
1625.285	-550.22
1626.256	-578.89
1627.227	533.15
1628.199	-109.91
1629.172	-433.49
1630.145	-406.86
1631.119	412.32
1632.094	1010.33
1633.069	-628.04
1634.044	-361.81
1635.02	232.1
1635.997	686.75
1636.975	-607.56
1637.953	-744.78
1638.931	942.75
1639.911	10.92
1640.89	-716.11
1641.871	-544.08
1642.852	598.69
1643.833	506.53
1644.816	-791.88
1645.798	-935.24
1646.782	899.74
1647.766	133.8
1648.75	-701.77
1649.736	-683.34
1650.721	6.83
1651.708	455.33
1652.695	-685.39
1653.682	-537.93
1654.671	514.72
1655.66	592.55
1656.649	-646.48
1657.639	-679.24
1658.63	-122.2
1659.621	295.59
1660.613	-941.38
1661.605	-857.42
1662.598	223.91
1663.592	180.9
1664.586	-949.57
1665.581	-808.26
1666.576	166.57
1667.572	375.46
1668.569	-755.02
1669.566	-838.98
1670.564	422.56
1671.563	740
1672.562	-691.53
1673.562	-312.66
1674.562	393.89
1675.563	469.67
1676.564	-496.97
1677.566	-525.65
1678.569	987.8
1679.572	-380.24
1680.576	-439.63
1681.581	-693.58
1682.586	195.24
1683.592	543.39
1684.598	-623.95
1685.605	-427.34
1686.613	707.23
1687.621	311.97
1688.63	-513.36
1689.639	-417.1
1690.649	228.01
1691.66	481.96
1692.671	-529.74
1693.683	-795.98
1694.696	168.62
1695.709	461.48
1696.722	-693.58
1697.737	-603.47
1698.752	176.81
1699.767	461.48
1700.783	-580.94
1701.8	-453.97
1702.818	371.37
1703.836	19.11
1704.854	-847.18
1705.873	-685.39
1706.893	289.45
1707.914	516.77
1708.935	-666.96
1709.956	-664.91
1710.979	359.08
1712.002	373.41
1713.025	-697.67
1714.049	-562.51
1715.074	461.48
1716.099	553.63
1717.125	-691.53
1718.152	-775.5
1719.179	4.78
1720.207	606.88
1721.235	-144.72
1722.265	-124.24
1723.294	404.13
1724.325	141.99
1725.355	-410.96
1726.387	-613.71
1727.419	314.02
1728.452	625.31
1729.485	-423.25
1730.519	-703.82
1731.554	88.75
1732.589	424.61
1733.625	-824.65
1734.662	-611.66
1735.699	-30.04
1736.736	674.46
1737.775	-730.44
1738.814	-660.81
1739.853	129.7
1740.894	121.51
1741.934	-492.88
1742.976	-798.03
1744.018	580.26
1745.061	326.31
1746.104	-673.1
1747.148	-701.77
1748.193	283.3
1749.238	334.5
1750.284	-476.49
1751.33	-757.07
1752.377	416.42
1753.425	1045.15
1754.473	-642.38
1755.522	-652.62
1756.572	797.34
1757.622	531.11
1758.673	-845.13
1759.724	-562.51
1760.776	656.03
1761.829	768.67
1762.882	-357.71
1763.936	-750.92
1764.991	133.8
1766.046	1020.57
1767.102	-447.82
1768.158	-785.74
1769.215	479.91
1770.273	502.44
1771.331	-597.32
1772.39	-777.55
1773.45	461.48
1774.51	420.52
1775.571	-863.56
1776.632	-202.07
1777.694	254.63
1778.757	606.88
1779.82	-505.17
1780.884	-505.17
1781.949	109.23
1783.014	533.15
1784.08	-965.96
1785.147	-697.67
1786.214	162.47
1787.282	88.75
1788.35	-464.21
1789.419	-503.12
1790.489	641.7
1791.559	436.9
1792.63	-673.1
1793.702	-378.19
1794.774	295.59
1795.847	567.97
1796.92	-347.47
1797.994	-464.21
1799.069	580.26
1800.144	1174.17
1801.22	-591.18
1802.297	-464.21
1803.374	-9.56
1804.452	537.25
1805.531	-666.96
1806.61	-439.63
1807.69	559.78
1808.77	-21.84
1809.851	-519.5
1810.933	-863.56
1812.015	686.75
1813.098	141.99
1814.182	-640.33
1815.266	-550.22
1816.351	260.77
1817.437	402.08
1818.523	-539.98
1819.61	-570.7
1820.697	387.75
1821.785	1178.26
1822.874	-611.66
1823.963	-728.39
1825.053	289.45
1826.144	541.35
1827.235	-576.84
1828.327	-652.62
1829.42	371.37
1830.513	-71
1831.607	-755.02
1832.701	-660.81
1833.796	240.3
1834.892	684.7
1835.989	-820.55
1837.086	-714.06
1838.183	438.95
1839.282	305.83
1840.381	-609.61
1841.48	-709.96
1842.581	365.22
1843.682	838.3
1844.783	-292.18
1845.885	-347.47
1846.988	680.61
1848.092	518.82
1849.196	-501.07
1850.301	-419.15
1851.406	-19.8
1852.512	1014.43
1853.619	-683.34
1854.726	-785.74
1855.834	109.23
1856.943	696.99
1858.052	-718.15
1859.162	-570.7
1860.273	412.32
1861.384	776.86
1862.496	-556.36
1863.608	-714.06
1864.721	453.28
1865.835	117.42
1866.95	-724.3
1868.065	-669
1869.181	191.14
1870.297	621.22
1871.414	-345.42
1872.532	-804.17
1873.65	295.59
1874.769	262.82
1875.889	-714.06
1877.009	-230.74
1878.13	543.39
1879.252	840.35
1880.374	-517.45
1881.497	-615.76
1882.62	291.49
1883.745	219.82
1884.87	-812.36
1885.995	-927.05
1887.121	244.39
1888.248	37.55
1889.376	-798.03
1890.504	-677.19
1891.632	373.41
1892.762	213.67
1893.892	-636.24
1895.023	-374.1
1896.154	150.18
1897.286	338.6
1898.419	-685.39
1899.552	-535.89
1900.686	533.15
1901.821	537.25
1902.956	-693.58
1904.092	-648.52
1905.229	869.02
1906.366	543.39
1907.504	-763.21
1908.643	-714.06
1909.782	565.92
