Data from led6500K_USB4H112691__2__12-40-23-176.txt Node

Date: Tue Dec 17 12:40:23 CET 2024
User: Etudiants TP
Spectrometer: USB4H11269
Trigger mode: 4
Integration Time (sec): 1.000000E0
Scans to average: 1
Electric dark correction enabled: true
Nonlinearity correction enabled: false
Boxcar width: 0
XAxis mode: Wavelengths
Number of Pixels in Spectrum: 3648
>>>>>Begin Spectral Data<<<<<
286.377	-1592.47
286.631	-1592.47
286.884	-1592.47
287.138	-1690.77
287.391	-1600.66
287.644	-840.86
287.896	-644.26
288.149	697.16
288.401	449.36
288.653	-466.08
288.905	-504.99
289.157	904.01
289.409	295.76
289.661	-468.13
289.912	-695.46
290.163	465.74
290.414	807.75
290.665	-791.71
290.916	-617.63
291.166	596.81
291.417	1024.84
291.667	-642.21
291.917	-259.24
292.167	533.33
292.417	447.31
292.666	-748.7
292.916	-691.36
293.165	525.13
293.414	629.58
293.663	-949.4
293.912	-783.52
294.16	725.83
294.408	697.16
294.657	-562.34
294.905	-525.47
295.153	559.95
295.4	605
295.648	-842.91
295.895	-732.32
296.143	121.68
296.39	762.7
296.637	-713.89
296.884	-666.78
297.13	578.38
297.377	815.94
297.623	-562.34
297.869	-373.92
298.115	729.93
298.361	656.2
298.606	-740.51
298.852	-683.17
299.097	566.09
299.342	951.11
299.587	-468.13
299.832	-519.33
300.077	670.54
300.322	633.68
300.566	-715.94
300.81	-461.99
301.054	559.95
301.298	836.42
301.542	-171.18
301.785	-330.92
302.029	852.81
302.272	717.64
302.515	-834.72
302.758	-576.67
303.001	760.65
303.244	752.46
303.486	-523.43
303.729	-871.58
303.971	990.02
304.213	791.37
304.455	-838.81
304.696	-382.12
304.938	293.71
305.179	828.23
305.421	-441.51
305.662	-515.23
305.903	394.06
306.143	322.38
306.384	-466.08
306.625	-537.76
306.865	459.6
307.105	289.62
307.345	-429.22
307.585	-580.77
307.825	142.16
308.064	736.07
308.304	-629.92
308.543	-783.52
308.782	471.89
309.021	772.94
309.26	-449.7
309.499	-572.58
309.737	910.15
309.976	723.79
310.214	-740.51
310.452	-691.36
310.69	1215.3
310.928	346.96
311.165	-720.03
311.403	-550.05
311.64	791.37
311.878	676.68
312.115	-494.76
312.351	-582.82
312.588	467.79
312.825	910.15
313.061	-670.88
313.298	-19.63
313.534	183.12
313.77	820.04
314.006	-701.6
314.241	-650.4
314.477	652.11
314.713	1233.73
314.948	-576.67
315.183	271.19
315.418	959.3
315.653	584.52
315.888	-785.57
316.122	-533.67
316.357	279.38
316.591	854.86
316.825	-621.73
317.059	-541.86
317.293	1041.22
317.527	385.87
317.76	-679.07
317.994	-461.99
318.227	721.74
318.46	1198.92
318.693	-769.18
318.926	-531.62
319.159	191.31
319.391	617.29
319.624	-885.92
319.856	-488.61
320.088	793.42
320.321	633.68
320.552	-304.29
320.784	-670.88
321.016	893.77
321.247	-72.87
321.479	-384.16
321.71	-361.64
321.941	-179.37
322.172	1147.72
322.403	-713.89
322.633	-367.78
322.864	875.34
323.094	201.55
323.325	-156.84
323.555	-668.83
323.785	273.23
324.014	258.9
324.244	-443.56
324.474	-425.12
324.703	973.64
324.933	887.62
325.162	-365.73
325.391	-781.47
325.62	9.05
325.848	824.14
326.077	-515.23
326.306	-312.49
326.534	682.83
326.762	1030.98
326.99	-556.19
327.218	-287.91
327.446	799.56
327.674	129.88
327.901	-707.74
328.129	-687.26
328.356	801.61
328.583	293.71
328.81	-634.02
329.037	-513.19
329.264	461.65
329.491	783.18
329.717	-470.18
329.944	-572.58
330.17	340.82
330.396	150.36
330.622	-679.07
330.848	-386.21
331.074	453.45
331.299	1459.01
331.525	-644.26
331.75	-591.01
331.975	1078.08
332.201	174.93
332.426	-990.36
332.65	-670.88
332.875	-117.93
333.1	369.49
333.324	-726.18
333.549	-703.65
333.773	443.21
333.997	557.9
334.221	-623.78
334.445	-621.73
334.668	637.77
334.892	1039.17
335.116	-359.59
335.339	-513.19
335.562	39.76
335.785	398.16
336.008	-400.55
336.231	-646.3
336.454	-146.6
336.676	985.93
336.899	-492.71
337.121	-359.59
337.343	136.02
337.566	617.29
337.788	-564.39
338.009	-775.33
338.231	35.67
338.453	428.88
338.674	3386.15
338.896	-529.57
339.117	-23.72
339.338	1051.46
339.559	-683.17
339.78	-652.45
340.001	185.17
340.222	836.42
340.442	-584.87
340.663	-337.06
340.883	699.21
341.103	404.3
341.323	-595.11
341.543	-365.73
341.763	703.31
341.983	387.92
342.202	-732.32
342.422	-697.5
342.641	1067.85
342.861	377.68
343.08	-136.36
343.299	-687.26
343.518	578.38
343.736	627.53
343.955	-521.38
344.174	-748.7
344.392	887.62
344.61	70.48
344.829	-695.46
345.047	-588.96
345.265	723.79
345.483	871.24
345.7	-644.26
345.918	-160.94
346.136	185.17
346.353	918.34
346.57	-691.36
346.788	-705.7
347.005	369.49
347.222	-52.39
347.438	-122.02
347.655	-568.48
347.872	123.73
348.088	1100.61
348.305	-337.06
348.521	-634.02
348.737	226.13
348.953	951.11
349.169	-177.32
349.385	-556.19
349.601	482.13
349.817	-138.41
350.032	-253.09
350.248	-359.59
350.463	1221.44
350.678	-294.05
350.893	-638.11
351.108	-722.08
351.323	74.58
351.538	815.94
351.753	-697.5
351.967	-621.73
352.182	725.83
352.396	224.08
352.61	-658.59
352.824	-629.92
353.038	615.24
353.252	838.47
353.466	-513.19
353.68	-507.04
353.894	406.35
354.107	164.69
354.32	-380.07
354.534	-703.65
354.747	693.07
354.96	-68.78
355.173	-392.36
355.386	-826.53
355.599	637.77
355.811	316.24
356.024	-726.18
356.236	-464.04
356.449	271.19
356.661	441.17
356.873	-777.37
357.085	-902.3
357.297	641.87
357.509	680.78
357.721	-597.15
357.933	-543.91
358.144	283.47
358.356	230.23
358.567	-371.88
358.778	-756.9
358.989	926.54
359.2	205.65
359.411	-451.75
359.622	-300.2
359.833	615.24
360.044	289.62
360.254	-572.58
360.465	-687.26
360.675	486.22
360.885	455.5
361.096	-767.13
361.306	-595.11
361.516	281.43
361.726	394.06
361.935	-851.1
362.145	-578.72
362.355	465.74
362.564	514.89
362.774	-826.53
362.983	-793.76
363.192	1018.69
363.401	176.98
363.61	-683.17
363.819	-275.62
364.028	609.1
364.237	947.01
364.445	-613.54
364.654	-400.55
364.862	385.87
365.071	54.1
365.279	-392.36
365.487	-640.16
365.695	668.49
365.903	383.82
366.111	-638.11
366.319	-527.52
366.527	639.82
366.734	287.57
366.942	-480.42
367.149	-818.33
367.357	-527.52
367.564	1071.94
367.771	-406.69
367.978	-601.25
368.185	201.55
368.392	289.62
368.599	-378.02
368.806	-560.29
369.013	21.33
369.219	500.56
369.426	-826.53
369.632	-244.9
369.838	1106.76
370.044	623.44
370.251	-572.58
370.457	-474.28
370.663	1010.5
370.868	383.82
371.074	-576.67
371.28	-617.63
371.485	-138.41
371.691	635.72
371.896	-644.26
372.102	-687.26
372.307	1073.99
372.512	877.38
372.717	-593.06
372.922	-230.57
373.127	35.67
373.332	385.87
373.537	-519.33
373.741	-629.92
373.946	482.13
374.151	181.07
374.355	-769.18
374.559	-550.05
374.764	226.13
374.968	-273.57
375.172	-609.44
375.376	-212.14
375.58	551.76
375.784	123.73
375.987	-720.03
376.191	-609.44
376.395	209.75
376.598	209.75
376.802	-707.74
377.005	-339.11
377.208	238.42
377.412	156.5
377.615	-785.57
377.818	-629.92
378.021	310.1
378.224	-70.83
378.426	-609.44
378.629	-789.66
378.832	791.37
379.034	656.2
379.237	-994.46
379.439	-838.81
379.642	820.04
379.844	484.17
380.046	-892.06
380.248	-707.74
380.45	-107.69
380.652	-173.22
380.854	-603.3
381.056	-627.87
381.258	222.03
381.459	465.74
381.661	-756.9
381.862	-404.64
382.064	-150.7
382.265	262.99
382.467	-742.56
382.668	-576.67
382.869	803.66
383.07	306
383.271	-507.04
383.472	-681.12
383.673	670.54
383.874	344.91
384.074	-529.57
384.275	-791.71
384.476	635.72
384.676	1018.69
384.876	-781.47
385.077	-662.69
385.277	633.68
385.477	844.62
385.677	-806.05
385.878	-584.87
386.078	320.34
386.278	256.85
386.477	-402.6
386.677	-269.48
386.877	566.09
387.077	668.49
387.276	-408.74
387.476	-525.47
387.675	359.25
387.875	1041.22
388.074	-666.78
388.273	-548
388.472	828.23
388.671	-160.94
388.87	-748.7
389.069	-146.6
389.268	-226.47
389.467	-27.82
389.666	-808.09
389.865	-251.05
390.063	478.03
390.262	781.13
390.461	-631.97
390.659	-638.11
390.857	723.79
391.056	660.3
391.254	-711.84
391.452	-648.35
391.65	758.6
391.849	426.83
392.047	-570.53
392.245	-390.31
392.442	267.09
392.64	529.23
392.838	-259.24
393.036	-480.42
393.233	258.9
393.431	334.67
393.629	-910.49
393.826	-496.8
394.023	254.8
394.221	-136.36
394.418	-449.7
394.615	-396.45
394.812	-111.78
395.01	662.35
395.207	-580.77
395.404	-662.69
395.601	979.78
395.797	484.17
395.994	-779.42
396.191	-517.28
396.388	144.21
396.584	656.2
396.781	-302.25
396.977	29.52
397.174	641.87
397.37	86.87
397.567	-396.45
397.763	-717.98
397.959	369.49
398.155	328.53
398.352	-566.43
398.548	-277.67
398.744	660.3
398.94	453.45
399.136	-820.38
399.331	-238.76
399.527	475.98
399.723	463.69
399.919	-402.6
400.114	-582.82
400.31	289.62
400.505	578.38
400.701	-570.53
400.896	-638.11
401.092	156.5
401.287	340.82
401.482	-748.7
401.678	-382.12
401.873	625.48
402.068	596.81
402.263	-494.76
402.458	-597.15
402.653	88.92
402.848	586.57
403.043	-521.38
403.237	-697.5
403.432	107.35
403.627	-232.62
403.822	-814.24
404.016	-629.92
404.211	115.54
404.405	639.82
404.6	-234.66
404.794	-263.33
404.989	467.79
405.183	168.79
405.377	-296.1
405.571	-224.42
405.766	451.41
405.96	328.53
406.154	-548
406.348	-476.32
406.542	596.81
406.736	498.51
406.93	-722.08
407.124	-464.04
407.318	205.65
407.511	316.24
407.705	-404.64
407.899	-580.77
408.092	459.6
408.286	504.65
408.48	-695.46
408.673	-634.02
408.867	99.16
409.06	332.62
409.253	-396.45
409.447	-543.91
409.64	643.92
409.833	478.03
410.026	-351.4
410.22	-400.55
410.413	656.2
410.606	441.17
410.799	-670.88
410.992	-548
411.185	248.66
411.378	971.59
411.571	-539.81
411.764	-429.22
411.956	488.27
412.149	467.79
412.342	-375.97
412.534	-390.31
412.727	541.52
412.92	359.25
413.112	-472.23
413.305	-162.98
413.497	715.59
413.69	666.44
413.882	-441.51
414.075	-226.47
414.267	498.51
414.459	336.72
414.652	-642.21
414.844	-498.85
415.036	422.73
415.228	774.99
415.42	-244.9
415.612	-474.28
415.804	897.86
415.997	475.98
416.188	-251.05
416.38	-277.67
416.572	201.55
416.764	672.59
416.956	-490.66
417.148	-597.15
417.34	193.36
417.531	-83.11
417.723	-543.91
417.915	-453.8
418.107	148.31
418.298	394.06
418.49	-369.83
418.681	-218.28
418.873	836.42
419.064	408.4
419.256	-371.88
419.447	-437.41
419.639	539.47
419.83	901.96
420.021	-251.05
420.213	-535.71
420.404	422.73
420.595	469.84
420.786	-244.9
420.978	-302.25
421.169	641.87
421.36	398.16
421.551	-466.08
421.742	-513.19
421.933	926.54
422.124	621.39
422.315	-347.3
422.506	-429.22
422.697	615.24
422.888	328.53
423.079	-81.07
423.27	-396.45
423.461	447.31
423.652	260.95
423.842	-543.91
424.033	-316.58
424.224	758.6
424.415	1039.17
424.605	-261.29
424.796	-400.55
424.987	602.96
425.177	562
425.368	-621.73
425.558	-552.1
425.749	406.35
425.939	355.15
426.13	11.09
426.32	-191.66
426.511	193.36
426.701	306
426.892	-345.25
427.082	-423.08
427.272	334.67
427.463	443.21
427.653	-298.15
427.843	-167.08
428.034	1000.26
428.224	756.55
428.414	-558.24
428.604	-302.25
428.795	684.87
428.985	688.97
429.175	-19.63
429.365	9.05
429.555	641.87
429.745	389.97
429.935	-310.44
430.126	-60.59
430.316	869.19
430.506	861
430.696	-187.56
430.886	-64.68
431.076	682.83
431.266	576.33
431.456	64.34
431.645	-251.05
431.835	471.89
432.025	674.64
432.215	-445.6
432.405	2.9
432.595	725.83
432.785	559.95
432.975	-298.15
433.164	-459.94
433.354	346.96
433.544	754.51
433.734	-302.25
433.923	2.9
434.113	545.61
434.303	713.55
434.493	52.05
434.682	-173.22
434.872	861
435.062	172.88
435.251	-19.63
435.441	-167.08
435.631	1045.32
435.82	668.49
436.01	-263.33
436.2	-60.59
436.389	553.8
436.579	1157.96
436.768	287.57
436.958	187.22
437.147	652.11
437.337	987.97
437.527	211.79
437.716	-52.39
437.906	1168.2
438.095	740.17
438.285	82.77
438.474	197.46
438.664	1196.87
438.853	1002.31
439.043	289.62
439.232	-68.78
439.422	1117
439.611	1045.32
439.8	17.24
439.99	418.64
440.179	1168.2
440.369	1442.62
440.558	0.85
440.748	172.88
440.937	922.44
441.126	746.31
441.316	514.89
441.505	238.42
441.695	1231.68
441.884	1753.91
442.073	351.06
442.263	226.13
442.452	1090.37
442.642	1430.34
442.831	318.29
443.02	731.98
443.21	1733.43
443.399	2143.03
443.588	543.57
443.778	617.29
443.967	1876.79
444.156	1481.53
444.346	502.61
444.535	353.1
444.725	1989.43
444.914	1391.42
445.103	516.94
445.293	596.81
445.482	1903.42
445.671	1459.01
445.861	772.94
446.05	885.58
446.239	1762.11
446.429	1360.7
446.618	590.67
446.807	1086.28
446.997	1747.77
447.186	1715
447.376	1043.27
447.565	959.3
447.754	2132.79
447.944	2089.78
448.133	799.56
448.322	713.55
448.512	1631.04
448.701	2245.43
448.891	938.82
449.08	992.07
449.269	1073.99
449.459	1483.58
449.648	754.51
449.838	748.36
450.027	1397.57
450.217	1305.41
450.406	625.48
450.595	996.17
450.785	1803.07
450.974	1827.64
451.164	688.97
451.353	887.62
451.543	1786.68
451.732	2245.43
451.922	789.32
452.111	791.37
452.301	1229.63
452.49	1213.25
452.68	385.87
452.869	1155.91
453.059	1379.14
453.249	1975.1
453.438	379.73
453.628	861
453.817	1624.89
454.007	1540.93
454.197	430.93
454.386	639.82
454.576	1872.7
454.765	1678.14
454.955	709.45
455.145	455.5
455.334	1397.57
455.524	1092.42
455.714	781.13
455.904	543.57
456.093	2206.52
456.283	1696.57
456.473	529.23
456.663	582.48
456.852	1405.76
457.042	1438.53
457.232	566.09
457.422	1278.79
457.612	1559.36
457.802	1827.64
457.991	260.95
458.181	392.02
458.371	1614.65
458.561	1590.08
458.751	656.2
458.941	330.58
459.131	1297.22
459.321	1162.05
459.511	641.87
459.701	658.25
459.891	1344.32
460.081	1057.61
460.271	572.24
460.461	394.06
460.651	2097.97
460.841	1923.9
461.032	533.33
461.222	443.21
461.412	1295.17
461.602	2204.47
461.792	181.07
461.983	238.42
462.173	1463.1
462.363	1882.94
462.554	521.04
462.744	459.6
462.934	1626.94
463.125	1401.66
463.315	295.76
463.505	443.21
463.696	1549.12
463.886	1086.28
464.077	328.53
464.267	412.5
464.458	1753.91
464.648	1049.41
464.839	533.33
465.03	316.24
465.22	938.82
465.411	1387.33
465.601	361.3
465.792	295.76
465.983	1200.96
466.174	1524.54
466.364	97.11
466.555	361.3
466.746	1555.26
466.937	1053.51
467.128	353.1
467.319	273.23
467.51	1567.55
467.701	2212.66
467.891	379.73
468.082	324.43
468.274	1301.31
468.465	758.6
468.656	598.86
468.847	45.91
469.038	863.05
469.229	1112.9
469.42	422.73
469.612	330.58
469.803	1485.63
469.994	1516.35
470.185	449.36
470.377	150.36
470.568	1196.87
470.76	1360.7
470.951	291.66
471.142	576.33
471.334	1516.35
471.526	1172.29
471.717	633.68
471.909	203.6
472.1	1135.43
472.292	1348.42
472.484	131.92
472.675	254.8
472.867	1162.05
473.059	1729.34
473.251	412.5
473.443	265.04
473.635	1246.02
473.826	1596.22
474.018	289.62
474.21	363.34
474.402	1372.99
474.595	1717.05
474.787	238.42
474.979	504.65
475.171	1084.23
475.363	707.4
475.555	0.85
475.748	328.53
475.94	1461.06
476.132	1024.84
476.325	254.8
476.517	754.51
476.71	2089.78
476.902	1053.51
477.095	86.87
477.287	641.87
477.48	1618.75
477.673	1280.83
477.865	426.83
478.058	289.62
478.251	1426.24
478.444	1807.16
478.636	510.8
478.829	275.28
479.022	1329.99
479.215	1436.48
479.408	451.41
479.601	863.05
479.794	1063.75
479.988	1073.99
480.181	609.1
480.374	463.69
480.567	1432.38
480.76	2024.25
480.954	430.93
481.147	93.01
481.341	1125.19
481.534	1104.71
481.728	549.71
481.921	586.57
482.115	1502.01
482.308	1774.39
482.502	273.23
482.696	500.56
482.89	2095.93
483.084	1413.95
483.277	484.17
483.471	639.82
483.665	1747.77
483.859	2448.18
484.053	82.77
484.247	150.36
484.442	1354.56
484.636	1307.46
484.83	402.26
485.024	512.85
485.219	1332.03
485.413	1211.2
485.608	260.95
485.802	713.55
485.997	1708.86
486.191	1329.99
486.386	414.54
486.58	521.04
486.775	1395.52
486.97	1805.11
487.165	551.76
487.36	512.85
487.555	1426.24
487.75	1280.83
487.945	615.24
488.14	303.95
488.335	1160
488.53	1098.56
488.725	469.84
488.92	582.48
489.116	1786.68
489.311	1514.3
489.507	293.71
489.702	889.67
489.898	1811.26
490.093	977.73
490.289	682.83
490.485	478.03
490.68	928.58
490.876	1780.54
491.072	316.24
491.268	500.56
491.464	1753.91
491.66	1497.92
491.856	516.94
492.052	1012.55
492.248	1688.38
492.445	1438.53
492.641	295.76
492.837	389.97
493.034	1708.86
493.23	1848.12
493.427	863.05
493.623	506.7
493.82	1444.67
494.017	1973.05
494.214	486.22
494.41	275.28
494.607	1534.78
494.804	1170.24
495.001	549.71
495.198	615.24
495.395	1553.21
495.593	1647.42
495.79	402.26
495.987	187.22
496.184	879.43
496.382	1590.08
496.579	181.07
496.777	432.97
496.974	2108.21
497.172	1647.42
497.37	525.13
497.568	238.42
497.766	2249.52
497.963	1336.13
498.161	344.91
498.359	486.22
498.558	1872.7
498.756	1729.34
498.954	238.42
499.152	709.45
499.351	1573.69
499.549	1518.4
499.747	381.78
499.946	492.37
500.145	1239.87
500.343	1254.21
500.542	353.1
500.741	498.51
500.94	1565.5
501.139	1700.67
501.338	336.72
501.537	590.67
501.736	2024.25
501.935	1602.36
502.134	271.19
502.334	400.21
502.533	1616.7
502.733	1536.83
502.932	537.42
503.132	459.6
503.331	1219.39
503.531	1700.67
503.731	465.74
503.931	322.38
504.131	1155.91
504.331	1708.86
504.531	392.02
504.731	504.65
504.931	1467.2
505.132	1389.38
505.332	377.68
505.532	306
505.733	1577.79
505.933	1968.95
506.134	461.65
506.335	244.56
506.536	1176.39
506.736	1790.78
506.937	373.58
507.138	248.66
507.34	2198.32
507.541	1364.8
507.742	598.86
507.943	242.51
508.145	1426.24
508.346	803.66
508.548	90.96
508.749	234.32
508.951	916.3
509.153	1135.43
509.354	379.73
509.556	375.63
509.758	1622.84
509.96	861
510.163	459.6
510.365	568.14
510.567	1155.91
510.769	1069.89
510.972	271.19
511.174	623.44
511.377	971.59
511.58	2388.78
511.782	193.36
511.985	267.09
512.188	2020.15
512.391	1467.2
512.594	205.65
512.797	574.28
513.001	1708.86
513.204	1762.11
513.407	346.96
513.611	416.59
513.814	1547.07
514.018	1803.07
514.222	478.03
514.425	320.34
514.629	1360.7
514.833	1327.94
515.037	582.48
515.241	281.43
515.445	1053.51
515.65	963.4
515.854	377.68
516.059	389.97
516.263	1393.47
516.468	1327.94
516.672	314.19
516.877	275.28
517.082	809.8
517.287	1329.99
517.492	635.72
517.697	303.95
517.902	1401.66
518.107	1053.51
518.313	353.1
518.518	328.53
518.724	1758.01
518.929	1291.07
519.135	435.02
519.341	33.62
519.547	1221.44
519.753	1532.73
519.959	209.75
520.165	201.55
520.371	1590.08
520.577	1966.9
520.784	133.97
520.99	707.4
521.197	1459.01
521.404	1303.36
521.61	101.2
521.817	66.39
522.024	1819.45
522.231	1168.2
522.438	-138.41
522.645	697.16
522.853	1035.08
523.06	1270.59
523.268	357.2
523.475	275.28
523.683	1213.25
523.891	1442.62
524.098	41.81
524.306	330.58
524.514	1258.31
524.722	1215.3
524.931	320.34
525.139	379.73
525.347	701.26
525.556	1164.1
525.764	475.98
525.973	545.61
526.182	1254.21
526.391	953.16
526.6	226.13
526.809	344.91
527.018	1270.59
527.227	1403.71
527.436	344.91
527.646	267.09
527.855	1313.6
528.065	1086.28
528.275	269.14
528.484	172.88
528.694	1477.44
528.904	1381.18
529.114	201.55
529.325	357.2
529.535	815.94
529.745	1297.22
529.956	150.36
530.166	267.09
530.377	1264.45
530.588	1780.54
530.799	471.89
531.01	205.65
531.221	1618.75
531.432	1596.22
531.643	484.17
531.855	752.46
532.066	1600.32
532.278	1221.44
532.489	369.49
532.701	95.06
532.913	1717.05
533.125	1387.33
533.337	17.24
533.549	240.47
533.762	1493.82
533.974	830.28
534.186	-52.39
534.399	246.61
534.612	1628.99
534.825	1305.41
535.037	344.91
535.25	535.37
535.464	987.97
535.677	1676.09
535.89	254.8
536.104	381.78
536.317	1205.06
536.531	1221.44
536.744	502.61
536.958	377.68
537.172	1262.4
537.386	1051.46
537.6	377.68
537.815	322.38
538.029	1594.17
538.244	1602.36
538.458	33.62
538.673	275.28
538.888	1483.58
539.103	1852.22
539.318	521.04
539.533	166.74
539.748	1164.1
539.963	934.73
540.179	-31.91
540.394	-23.72
540.61	787.27
540.826	1049.41
541.042	193.36
541.258	82.77
541.474	1719.1
541.69	1217.35
541.906	308.05
542.123	172.88
542.339	1231.68
542.556	914.25
542.773	158.55
542.99	379.73
543.207	1033.03
543.424	936.78
543.641	428.88
543.858	617.29
544.076	1078.08
544.293	842.57
544.511	213.84
544.729	164.69
544.947	1086.28
545.165	1151.81
545.383	45.91
545.601	215.89
545.819	1315.65
546.038	1092.42
546.256	469.84
546.475	109.4
546.694	2087.73
546.913	1475.39
547.132	729.93
547.351	265.04
547.57	858.95
547.79	955.21
548.009	279.38
548.229	123.73
548.449	869.19
548.668	1534.78
548.888	447.31
549.109	283.47
549.329	1459.01
549.549	1651.52
549.77	357.2
549.99	353.1
550.211	1596.22
550.432	1870.65
550.653	181.07
550.874	400.21
551.095	1979.19
551.316	1151.81
551.538	174.93
551.759	430.93
551.981	1198.92
552.203	1418.05
552.424	271.19
552.646	623.44
552.869	1108.8
553.091	1276.74
553.313	510.8
553.536	512.85
553.758	1422.14
553.981	1139.52
554.204	258.9
554.427	510.8
554.65	1508.16
554.873	813.9
555.097	133.97
555.32	273.23
555.544	1594.17
555.768	1491.77
555.992	246.61
556.216	189.27
556.44	883.53
556.664	1481.53
556.888	766.79
557.113	176.98
557.337	1905.46
557.562	1700.67
557.787	103.25
558.012	410.45
558.237	1186.63
558.462	1082.18
558.688	596.81
558.913	334.67
559.139	815.94
559.365	1385.28
559.591	279.38
559.817	359.25
560.043	1532.73
560.269	1715
560.496	729.93
560.722	361.3
560.949	1731.39
561.176	787.27
561.403	287.57
561.63	469.84
561.857	738.12
562.084	891.72
562.312	250.71
562.539	404.3
562.767	1684.28
562.995	1090.37
563.223	445.26
563.451	516.94
563.679	1045.32
563.908	1254.21
564.136	396.11
564.365	566.09
564.594	807.75
564.823	2343.73
565.052	521.04
565.281	29.52
565.51	1248.07
565.74	1000.26
565.969	172.88
566.199	518.99
566.429	1489.73
566.659	1370.94
566.889	312.14
567.119	322.38
567.35	1745.72
567.58	1696.57
567.811	537.42
568.042	224.08
568.273	1041.22
568.504	1450.82
568.735	379.73
568.966	346.96
569.198	1229.63
569.43	1567.55
569.661	545.61
569.893	615.24
570.125	1762.11
570.358	1600.32
570.59	349.01
570.822	377.68
571.055	1438.53
571.288	1596.22
571.521	316.24
571.754	281.43
571.987	1831.74
572.22	1360.7
572.454	373.58
572.687	447.31
572.921	893.77
573.155	1301.31
573.389	1041.22
573.623	856.9
573.858	1121.09
574.092	1583.93
574.327	455.5
574.561	731.98
574.796	1073.99
575.031	1516.35
575.266	277.33
575.502	537.42
575.737	1600.32
575.973	1323.84
576.209	527.18
576.445	381.78
576.681	1123.14
576.917	1409.86
577.153	365.39
577.39	420.69
577.626	1401.66
577.863	1436.48
578.1	271.19
578.337	664.4
578.574	1178.44
578.812	1700.67
579.049	551.76
579.287	344.91
579.525	1581.89
579.763	1477.44
580.001	279.38
580.239	441.17
580.478	1837.88
580.716	1502.01
580.955	643.92
581.194	633.68
581.433	1741.63
581.672	1329.99
581.911	402.26
582.151	287.57
582.39	1192.77
582.63	1862.46
582.87	396.11
583.11	389.97
583.35	848.71
583.591	1262.4
583.831	725.83
584.072	770.89
584.313	1524.54
584.554	1413.95
584.795	590.67
585.036	652.11
585.277	2151.22
585.519	1786.68
585.761	316.24
586.003	381.78
586.245	1530.69
586.487	2063.16
586.729	693.07
586.972	531.28
587.215	2319.15
587.457	1139.52
587.7	791.37
587.944	725.83
588.187	1387.33
588.43	1274.69
588.674	494.41
588.918	410.45
589.162	1803.07
589.406	1336.13
589.65	424.78
589.894	1239.87
590.139	1645.37
590.384	1874.74
590.629	504.65
590.874	590.67
591.119	1157.96
591.364	1639.23
591.61	512.85
591.855	406.35
592.101	2126.64
592.347	1622.84
592.593	619.34
592.84	906.06
593.086	2138.93
593.333	1278.79
593.58	379.73
593.827	443.21
594.074	1467.2
594.321	1467.2
594.568	566.09
594.816	283.47
595.064	1563.45
595.312	1393.47
595.56	402.26
595.808	893.77
596.057	1739.58
596.305	1569.6
596.554	219.99
596.803	693.07
597.052	1856.31
597.301	1995.57
597.551	353.1
597.8	805.71
598.05	1837.88
598.3	1467.2
598.55	357.2
598.8	537.42
599.051	1200.96
599.301	1213.25
599.552	183.12
599.803	926.54
600.054	1729.34
600.305	1452.86
600.556	807.75
600.808	721.74
601.06	1450.82
601.312	1645.37
601.564	586.57
601.816	314.19
602.068	2016.05
602.321	1796.92
602.574	772.94
602.827	437.07
603.08	1565.5
603.333	1686.33
603.587	410.45
603.84	848.71
604.094	1844.03
604.348	1286.98
604.602	480.08
604.856	480.08
605.111	1667.9
605.365	1708.86
605.62	713.55
605.875	361.3
606.13	1588.03
606.386	1495.87
606.641	557.9
606.897	363.34
607.153	1387.33
607.409	1831.74
607.665	318.29
607.921	453.45
608.178	1151.81
608.435	1651.52
608.692	484.17
608.949	650.06
609.206	1788.73
609.463	1520.45
609.721	570.19
609.979	832.33
610.237	1553.21
610.495	1864.5
610.753	830.28
611.012	699.21
611.27	1862.46
611.529	1655.61
611.788	639.82
612.047	404.3
612.307	1166.15
612.566	1745.72
612.826	525.13
613.086	635.72
613.346	992.07
613.606	1721.15
613.867	455.5
614.127	734.03
614.388	1073.99
614.649	1876.79
614.91	328.53
615.172	836.42
615.433	1164.1
615.695	1393.47
615.957	674.64
616.219	584.52
616.481	1893.18
616.743	1266.5
617.006	224.08
617.269	607.05
617.532	1715
617.795	1753.91
618.058	488.27
618.322	574.28
618.586	1665.85
618.849	1172.29
619.114	688.97
619.378	287.57
619.642	1577.79
619.907	1745.72
620.172	529.23
620.437	512.85
620.702	1643.32
620.967	1221.44
621.233	389.97
621.499	533.33
621.765	1370.94
622.031	1569.6
622.297	439.12
622.564	426.83
622.83	1315.65
623.097	2140.98
623.364	633.68
623.631	734.03
623.899	1540.93
624.166	1610.56
624.434	330.58
624.702	308.05
624.97	1790.78
625.239	1090.37
625.507	461.65
625.776	582.48
626.045	1176.39
626.314	1411.9
626.584	611.15
626.853	402.26
627.123	1409.86
627.393	861
627.663	402.26
627.933	529.23
628.204	1729.34
628.474	1573.69
628.745	295.76
629.016	656.2
629.287	1383.23
629.559	1196.87
629.83	275.28
630.102	484.17
630.374	1026.89
630.646	1872.7
630.919	451.41
631.191	762.7
631.464	1225.54
631.737	1018.69
632.01	283.47
632.284	394.06
632.557	1755.96
632.831	1618.75
633.105	306
633.379	406.35
633.654	942.92
633.928	1366.85
634.203	398.16
634.478	224.08
634.753	1432.38
635.028	1354.56
635.304	566.09
635.58	412.5
635.856	1315.65
636.132	1256.26
636.408	297.81
636.685	324.43
636.961	1209.15
637.238	1270.59
637.515	465.74
637.793	246.61
638.07	1602.36
638.348	1198.92
638.626	539.47
638.904	598.86
639.182	691.02
639.461	815.94
639.74	346.96
640.019	588.62
640.298	553.8
640.577	1293.12
640.857	170.83
641.136	240.47
641.416	1196.87
641.696	1690.43
641.977	500.56
642.257	394.06
642.538	1401.66
642.819	1758.01
643.1	312.14
643.382	107.35
643.663	1489.73
643.945	1321.79
644.227	303.95
644.509	66.39
644.792	1729.34
645.074	1286.98
645.357	197.46
645.64	93.01
645.923	1149.76
646.207	1307.46
646.49	291.66
646.774	113.49
647.058	1117
647.342	1475.39
647.627	156.5
647.911	185.17
648.196	1645.37
648.481	1459.01
648.767	166.74
649.052	248.66
649.338	901.96
649.624	947.01
649.91	11.09
650.196	133.97
650.483	1446.72
650.77	1616.7
651.057	576.33
651.344	422.73
651.631	1194.82
651.919	969.54
652.207	232.27
652.495	359.25
652.783	1372.99
653.071	1319.75
653.36	97.11
653.649	138.07
653.938	1010.5
654.227	1344.32
654.517	445.26
654.806	168.79
655.096	746.31
655.387	1459.01
655.677	287.57
655.968	123.73
656.258	750.41
656.549	1536.83
656.841	281.43
657.132	222.03
657.424	977.73
657.716	1223.49
658.008	160.59
658.3	39.76
658.592	1278.79
658.885	1573.69
659.178	58.2
659.471	-27.82
659.765	734.03
660.058	1069.89
660.352	-7.34
660.646	86.87
660.94	1614.65
661.235	1213.25
661.53	416.59
661.824	-128.17
662.12	1180.48
662.415	576.33
662.711	41.81
663.006	271.19
663.302	840.52
663.599	731.98
663.895	41.81
664.192	320.34
664.489	1420.1
664.786	1467.2
665.083	-234.66
665.381	-68.78
665.678	852.81
665.976	1270.59
666.275	-210.09
666.573	54.1
666.872	629.58
667.171	1080.13
667.47	-199.85
667.769	-216.23
668.069	1364.8
668.368	1246.02
668.668	-199.85
668.969	-187.56
669.269	803.66
669.57	627.53
669.871	21.33
670.172	66.39
670.473	1299.27
670.775	1487.68
671.077	-44.2
671.379	39.76
671.681	1327.94
671.983	1106.76
672.286	-205.99
672.589	82.77
672.892	1008.45
673.196	940.87
673.499	-87.21
673.803	-64.68
674.107	1266.5
674.411	1026.89
674.716	99.16
675.021	105.3
675.326	803.66
675.631	1213.25
675.936	-251.05
676.242	-27.82
676.548	623.44
676.854	1657.66
677.16	-294.05
677.467	-25.77
677.774	1033.03
678.081	826.18
678.388	287.57
678.696	160.59
679.004	1209.15
679.312	1516.35
679.62	107.35
679.928	191.31
680.237	1213.25
680.546	518.99
680.855	41.81
681.164	11.09
681.474	1043.27
681.784	1022.79
682.094	0.85
682.404	-300.2
682.715	1356.61
683.026	500.56
683.337	-109.74
683.648	316.24
683.959	1456.96
684.271	1205.06
684.583	0.85
684.895	-201.9
685.208	1174.34
685.52	1178.44
685.833	60.24
686.146	-246.95
686.46	1393.47
686.773	928.58
687.087	-3.24
687.401	-185.51
687.716	1008.45
688.03	1090.37
688.345	-345.25
688.66	64.34
688.975	1364.8
689.291	1106.76
689.607	443.21
689.923	-68.78
690.239	869.19
690.555	1200.96
690.872	-79.02
691.189	-371.88
691.506	983.88
691.824	1323.84
692.142	-218.28
692.459	-52.39
692.778	668.49
693.096	1235.78
693.415	242.51
693.734	205.65
694.053	813.9
694.372	418.64
694.692	-210.09
695.012	66.39
695.332	707.4
695.652	861
695.973	95.06
696.294	-48.3
696.615	787.27
696.936	1338.18
697.258	-404.64
697.579	-142.5
697.902	500.56
698.224	656.2
698.546	-162.98
698.869	-230.57
699.192	680.78
699.516	1186.63
699.839	-150.7
700.163	-9.39
700.487	555.85
700.811	1602.36
701.136	-373.92
701.461	-93.35
701.786	975.69
702.111	1409.86
702.436	-414.88
702.762	162.64
703.088	1266.5
703.415	1440.58
703.741	29.52
704.068	-171.18
704.395	703.31
704.722	1104.71
705.05	-138.41
705.377	-56.49
705.705	1053.51
706.034	910.15
706.362	-300.2
706.691	-474.28
707.02	1272.64
707.349	1069.89
707.679	-58.54
708.009	-306.34
708.339	861
708.669	914.25
709	-97.45
709.33	-283.81
709.661	949.06
709.993	701.26
710.324	35.67
710.656	-203.94
710.988	914.25
711.321	1131.33
711.653	-318.63
711.986	-21.67
712.319	402.26
712.652	1094.47
712.986	113.49
713.32	-115.88
713.654	1248.07
713.988	1192.77
714.323	-203.94
714.658	-99.5
714.993	852.81
715.328	852.81
715.664	99.16
716	156.5
716.336	1434.43
716.673	721.74
717.009	191.31
717.346	25.43
717.683	1385.28
718.021	877.38
718.359	-208.04
718.697	-76.97
719.035	760.65
719.373	631.63
719.712	156.5
720.051	-257.19
720.39	1231.68
720.73	904.01
721.07	-132.26
721.41	-177.32
721.75	1198.92
722.091	1024.84
722.432	-171.18
722.773	205.65
723.114	848.71
723.456	904.01
723.798	-105.64
724.14	-5.29
724.482	731.98
724.825	889.67
725.168	97.11
725.511	-97.45
725.855	967.49
726.198	684.87
726.542	-113.83
726.887	289.62
727.231	1215.3
727.576	521.04
727.921	45.91
728.266	-269.48
728.612	840.52
728.958	1198.92
729.304	-208.04
729.651	396.11
729.997	668.49
730.344	797.51
730.691	-64.68
731.039	103.25
731.387	983.88
731.735	691.02
732.083	17.24
732.431	58.2
732.78	744.27
733.129	144.21
733.479	-187.56
733.828	148.31
734.178	699.21
734.528	435.02
734.879	-1.19
735.23	-81.07
735.581	1018.69
735.932	742.22
736.283	-89.26
736.635	-212.14
736.987	1297.22
737.34	1172.29
737.692	-142.5
738.045	-261.29
738.398	852.81
738.752	1090.37
739.105	-326.82
739.459	256.85
739.814	1061.7
740.168	1223.49
740.523	-283.81
740.878	9.05
741.233	795.47
741.589	1196.87
741.945	-64.68
742.301	-115.88
742.657	1258.31
743.014	703.31
743.371	-111.78
743.728	455.5
744.086	783.18
744.444	832.33
744.802	-363.69
745.16	-173.22
745.519	1012.55
745.878	590.67
746.237	-273.57
746.597	74.58
746.956	1188.68
747.316	951.11
747.677	-269.48
748.037	-40.11
748.398	740.17
748.759	1073.99
749.121	45.91
749.482	82.77
749.844	684.87
750.207	461.65
750.569	-533.67
750.932	25.43
751.295	1483.58
751.659	1028.93
752.022	-138.41
752.386	418.64
752.751	840.52
753.115	355.15
753.48	-72.87
753.845	-38.06
754.21	912.2
754.576	611.15
754.942	-259.24
755.308	174.93
755.675	598.86
756.041	1360.7
756.409	-335.01
756.776	121.68
757.144	1489.73
757.511	1008.45
757.88	-185.51
758.248	-328.87
758.617	310.1
758.986	842.57
759.355	115.54
759.725	37.72
760.095	508.75
760.465	1203.01
760.836	-384.16
761.206	-126.12
761.577	1164.1
761.949	518.99
762.32	99.16
762.692	-244.9
763.065	674.64
763.437	475.98
763.81	-324.77
764.183	-109.74
764.556	1321.79
764.93	709.45
765.304	123.73
765.678	156.5
766.053	729.93
766.428	748.36
766.803	-310.44
767.178	-269.48
767.554	275.28
767.93	635.72
768.306	-228.52
768.683	-289.96
769.06	1002.31
769.437	738.12
769.814	-396.45
770.192	-310.44
770.57	691.02
770.948	1459.01
771.327	-46.25
771.706	-382.12
772.085	830.28
772.464	1168.2
772.844	-42.15
773.224	-451.75
773.605	328.53
773.985	629.58
774.366	-44.2
774.748	226.13
775.129	1024.84
775.511	897.86
775.893	-158.89
776.276	-31.91
776.658	1096.52
777.041	713.55
777.425	-369.83
777.808	-144.55
778.192	648.01
778.576	1119.04
778.961	-517.28
779.346	-249
779.731	904.01
780.116	279.38
780.502	-234.66
780.888	-134.31
781.274	699.21
781.661	455.5
782.048	-353.45
782.435	-347.3
782.823	559.95
783.21	803.66
783.598	-242.85
783.987	-175.27
784.376	1057.61
784.765	545.61
785.154	-128.17
785.544	-255.14
785.933	887.62
786.324	516.94
786.714	93.01
787.105	-418.98
787.496	779.08
787.888	445.26
788.279	-423.08
788.671	-363.69
789.064	518.99
789.456	901.96
789.849	-482.47
790.242	-406.69
790.636	455.5
791.03	885.58
791.424	-371.88
791.818	1266.5
792.213	920.39
792.608	809.8
793.004	-74.92
793.399	-482.47
793.795	729.93
794.192	572.24
794.588	-361.64
794.985	-593.06
795.382	787.27
795.78	582.48
796.178	-187.56
796.576	-300.2
796.974	1221.44
797.373	650.06
797.772	-386.21
798.172	-369.83
798.571	672.59
798.971	967.49
799.372	-212.14
799.772	-251.05
800.173	1037.13
800.574	750.41
800.976	-302.25
801.378	-523.43
801.78	295.76
802.182	164.69
802.585	-208.04
802.988	-300.2
803.392	377.68
803.795	392.02
804.199	-396.45
804.604	-144.55
805.008	836.42
805.413	1127.24
805.819	-267.43
806.224	-429.22
806.63	691.02
807.036	701.26
807.443	-236.71
807.85	-347.3
808.257	662.35
808.664	662.35
809.072	47.96
809.48	-126.12
809.889	928.58
810.297	791.37
810.706	-3.24
811.116	-320.68
811.526	445.26
811.936	488.27
812.346	-416.93
812.757	-261.29
813.167	672.59
813.579	414.54
813.99	-130.22
814.402	-593.06
814.814	1110.85
815.227	389.97
815.64	-541.86
816.053	-283.81
816.467	951.11
816.88	580.43
817.294	-128.17
817.709	-165.03
818.124	457.55
818.539	979.78
818.954	-199.85
819.37	-5.29
819.786	219.99
820.202	777.03
820.619	-781.47
821.036	-371.88
821.453	942.92
821.871	623.44
822.289	-431.27
822.707	-466.08
823.126	697.16
823.545	299.86
823.964	-548
824.384	-425.12
824.804	230.23
825.224	639.82
825.645	-101.55
826.065	-558.24
826.487	891.72
826.908	762.7
827.33	-222.38
827.752	41.81
828.175	607.05
828.598	918.34
829.021	-60.59
829.444	435.02
829.868	641.87
830.292	234.32
830.717	-507.04
831.142	-429.22
831.567	250.71
831.992	480.08
832.418	74.58
832.844	-468.13
833.27	574.28
833.697	516.94
834.124	-660.64
834.552	-539.81
834.979	1033.03
835.408	861
835.836	-601.25
836.265	-343.21
836.694	365.39
837.123	742.22
837.553	-580.77
837.983	-720.03
838.413	787.27
838.844	865.1
839.275	-623.78
839.706	-232.62
840.138	1053.51
840.57	301.9
841.003	-373.92
841.435	-287.91
841.868	363.34
842.302	346.96
842.735	-255.14
843.169	-588.96
843.604	635.72
844.039	592.72
844.474	-502.95
844.909	-416.93
845.345	666.44
845.781	742.22
846.217	-466.08
846.654	-605.35
847.091	723.79
847.528	320.34
847.966	-588.96
848.404	-429.22
848.842	1065.8
849.281	-40.11
849.72	-322.73
850.16	-513.19
850.599	262.99
851.039	355.15
851.48	-171.18
851.921	-482.47
852.362	609.1
852.803	844.62
853.245	-795.81
853.687	-306.34
854.129	717.64
854.572	338.77
855.015	-677.02
855.459	-502.95
855.903	183.12
856.347	721.74
856.791	-326.82
857.236	-484.52
857.681	1004.36
858.127	1252.16
858.572	-179.37
859.019	-443.56
859.465	861
859.912	516.94
860.359	-672.93
860.807	-531.62
861.255	320.34
861.703	832.33
862.151	-363.69
862.6	60.24
863.05	648.01
863.499	275.28
863.949	-490.66
864.4	-654.5
864.85	1188.68
865.301	715.59
865.752	-486.56
866.204	-482.47
866.656	318.29
867.109	861
867.561	-470.18
868.014	-273.57
868.468	779.08
868.921	707.4
869.376	-384.16
869.83	-521.38
870.285	459.6
870.74	189.27
871.195	-375.97
871.651	-359.59
872.107	1008.45
872.564	322.38
873.021	-736.42
873.478	-717.98
873.936	815.94
874.394	615.24
874.852	-529.57
875.31	-378.02
875.769	502.61
876.229	1117
876.688	-351.4
877.148	-453.8
877.609	394.06
878.069	281.43
878.531	-183.46
878.992	-636.06
879.454	496.46
879.916	486.22
880.378	-388.26
880.841	-502.95
881.304	-64.68
881.768	148.31
882.232	-621.73
882.696	-369.83
883.161	133.97
883.626	467.79
884.091	-326.82
884.557	-492.71
885.023	99.16
885.489	762.7
885.956	-709.79
886.423	-572.58
886.89	-79.02
887.358	525.13
887.826	-572.58
888.295	-412.84
888.763	125.78
889.233	1098.56
889.702	-466.08
890.172	-548
890.642	320.34
891.113	336.72
891.584	-105.64
892.055	-433.32
892.527	551.76
892.999	815.94
893.472	-515.23
893.944	-355.49
894.417	336.72
894.891	9.05
895.365	-292.01
895.839	-373.92
896.314	430.93
896.789	-339.11
897.264	-578.72
897.74	-687.26
898.216	746.31
898.692	648.01
899.169	-539.81
899.646	-584.87
900.123	529.23
900.601	940.87
901.079	-597.15
901.558	-347.3
902.037	746.31
902.516	420.69
902.996	-711.84
903.476	-619.68
903.956	308.05
904.437	740.17
904.918	-654.5
905.399	-658.59
905.881	633.68
906.363	609.1
906.846	-656.54
907.329	-535.71
907.812	-11.43
908.296	508.75
908.78	-660.64
909.264	-613.54
909.749	240.47
910.234	734.03
910.719	-640.16
911.205	-353.45
911.691	-48.3
912.178	566.09
912.665	-89.26
913.152	-576.67
913.64	156.5
914.128	650.06
914.616	-480.42
915.105	-449.7
915.594	361.3
916.084	967.49
916.574	-466.08
917.064	-724.13
917.555	-29.87
918.046	566.09
918.537	-175.27
919.029	-941.21
919.521	131.92
920.013	867.14
920.506	-482.47
920.999	-642.21
921.493	527.18
921.987	303.95
922.481	-281.77
922.976	-638.11
923.471	271.19
923.967	439.12
924.462	-455.84
924.959	-478.37
925.455	525.13
925.952	369.49
926.449	-652.45
926.947	-613.54
927.445	379.73
927.944	392.02
928.442	-849.05
928.942	-724.13
929.441	594.76
929.941	74.58
930.442	-679.07
930.942	-539.81
931.443	711.5
931.945	103.25
932.447	-687.26
932.949	-531.62
933.451	281.43
933.954	271.19
934.458	-375.97
934.961	-658.59
935.465	45.91
935.97	95.06
936.475	-396.45
936.98	-629.92
937.486	-199.85
937.992	107.35
938.498	-670.88
939.005	-494.76
939.512	140.12
940.019	533.33
940.527	-466.08
941.035	-251.05
941.544	543.57
942.053	295.76
942.562	-212.14
943.072	-154.79
943.582	656.2
944.093	271.19
944.604	-783.52
945.115	-611.49
945.627	795.47
946.139	971.59
946.651	-584.87
947.164	-484.52
947.677	525.13
948.191	367.44
948.705	-613.54
949.219	-726.18
949.734	201.55
950.249	639.82
950.765	-605.35
951.281	-570.53
951.797	1393.47
952.314	697.16
952.831	-619.68
953.348	-738.46
953.866	590.67
954.384	201.55
954.903	-646.3
955.422	-810.14
955.941	363.34
956.461	418.64
956.981	-603.3
957.502	-406.69
958.023	607.05
958.544	502.61
959.066	-441.51
959.588	-744.61
960.11	37.72
960.633	783.18
961.156	-539.81
961.68	-461.99
962.204	770.89
962.729	-19.63
963.253	-562.34
963.779	-42.15
964.304	562
964.83	920.39
965.357	-677.02
965.883	-511.14
966.411	349.01
966.938	559.95
967.466	-597.15
967.994	-781.47
968.523	205.65
969.052	854.86
969.582	-683.17
970.112	-625.83
970.642	144.21
971.173	738.12
971.704	-681.12
972.235	-447.65
972.767	562
973.3	389.97
973.832	-367.78
974.365	-801.95
974.899	443.21
975.433	514.89
975.967	-791.71
976.502	-306.34
977.037	357.2
977.572	869.19
978.108	-646.3
978.644	-758.94
979.181	1164.1
979.718	629.58
980.255	-947.36
980.793	-486.56
981.331	-330.92
981.87	676.68
982.409	-550.05
982.948	-433.32
983.488	336.72
984.028	764.75
984.569	-461.99
985.11	-527.52
985.651	801.61
986.193	584.52
986.735	-732.32
987.278	-650.4
987.821	-81.07
988.364	316.24
988.908	-480.42
989.452	-668.83
989.997	-388.26
990.542	588.62
991.088	-625.83
991.633	-124.07
992.18	262.99
992.726	-203.94
993.273	-507.04
993.821	-416.93
994.369	308.05
994.917	762.7
995.465	-779.42
996.014	-857.25
996.564	631.63
997.114	170.83
997.664	-228.52
998.215	-695.46
998.766	457.55
999.317	-175.27
999.869	-451.75
1000.421	-703.65
1000.974	615.24
1001.527	639.82
1002.081	-681.12
1002.635	-337.06
1003.189	445.26
1003.744	762.7
1004.299	-822.43
1004.854	-560.29
1005.41	824.14
1005.967	289.62
1006.523	-498.85
1007.081	-433.32
1007.638	512.85
1008.196	576.33
1008.755	-765.09
1009.313	-447.65
1009.873	609.1
1010.432	-5.29
1010.992	-431.27
1011.553	-464.04
1012.114	299.86
1012.675	4.95
1013.237	-318.63
1013.799	-277.67
1014.361	467.79
1014.924	-64.68
1015.487	-744.61
1016.051	-449.7
1016.615	672.59
1017.18	467.79
1017.745	-668.83
1018.31	-285.86
1018.876	893.77
1019.442	408.4
1020.009	-537.76
1020.576	-771.23
1021.143	273.23
1021.711	697.16
1022.28	-523.43
1022.848	-595.11
1023.417	836.42
1023.987	332.62
1024.557	-625.83
1025.127	-638.11
1025.698	-142.5
1026.269	2.9
1026.841	-744.61
1027.413	-531.62
1027.985	183.12
1028.558	349.01
1029.131	-720.03
1029.705	-443.56
1030.279	418.64
1030.854	402.26
1031.429	-730.27
1032.004	-255.14
1032.58	672.59
1033.156	-19.63
1033.733	-664.74
1034.31	-642.21
1034.887	617.29
1035.465	643.92
1036.043	-933.02
1036.622	-580.77
1037.201	197.46
1037.781	664.4
1038.361	-728.22
1038.941	-756.9
1039.522	496.46
1040.103	723.79
1040.685	-576.67
1041.267	-228.52
1041.85	1192.77
1042.433	570.19
1043.016	-728.22
1043.6	-451.75
1044.184	-253.09
1044.769	543.57
1045.354	-478.37
1045.939	-693.41
1046.525	224.08
1047.111	537.42
1047.698	-412.84
1048.285	-836.77
1048.873	508.75
1049.461	19.29
1050.049	-672.93
1050.638	-580.77
1051.228	107.35
1051.817	828.23
1052.407	-668.83
1052.998	-306.34
1053.589	518.99
1054.18	650.06
1054.772	-883.87
1055.365	-695.46
1055.957	514.89
1056.55	242.51
1057.144	-490.66
1057.738	-584.87
1058.333	131.92
1058.927	185.17
1059.523	-629.92
1060.118	-693.41
1060.715	133.97
1061.311	539.47
1061.908	-711.84
1062.506	-556.19
1063.103	576.33
1063.702	27.48
1064.3	-892.06
1064.9	-685.22
1065.499	840.52
1066.099	41.81
1066.7	-595.11
1067.301	-920.73
1067.902	785.23
1068.504	619.34
1069.106	-341.16
1069.709	-447.65
1070.312	772.94
1070.915	445.26
1071.519	-738.46
1072.123	-408.74
1072.728	586.57
1073.333	287.57
1073.939	-277.67
1074.545	-543.91
1075.152	486.22
1075.759	127.83
1076.366	-654.5
1076.974	-392.36
1077.582	219.99
1078.191	691.02
1078.8	-400.55
1079.41	-939.16
1080.02	385.87
1080.63	379.73
1081.241	-117.93
1081.852	-894.11
1082.464	414.54
1083.076	373.58
1083.689	-683.17
1084.302	-640.16
1084.915	758.6
1085.529	469.84
1086.144	-613.54
1086.759	-486.56
1087.374	70.48
1087.99	279.38
1088.606	-631.97
1089.222	-533.67
1089.839	564.04
1090.457	379.73
1091.075	-507.04
1091.693	-896.16
1092.312	545.61
1092.931	848.71
1093.551	-736.42
1094.171	-285.86
1094.792	418.64
1095.413	156.5
1096.034	-605.35
1096.656	-554.15
1097.278	547.66
1097.901	392.02
1098.524	-662.69
1099.148	-380.07
1099.772	918.34
1100.397	377.68
1101.022	-758.94
1101.647	-617.63
1102.273	473.93
1102.899	635.72
1103.526	-900.25
1104.153	-425.12
1104.781	660.3
1105.409	725.83
1106.038	-736.42
1106.667	-894.11
1107.296	295.76
1107.926	172.88
1108.556	-199.85
1109.187	-521.38
1109.818	420.69
1110.45	672.59
1111.082	-482.47
1111.715	-613.54
1112.348	346.96
1112.981	303.95
1113.615	-347.3
1114.25	-386.21
1114.885	197.46
1115.52	234.32
1116.156	-867.49
1116.792	-578.72
1117.428	590.67
1118.066	222.03
1118.703	-326.82
1119.341	-582.82
1119.98	764.75
1120.618	750.41
1121.258	-720.03
1121.898	-824.48
1122.538	381.78
1123.179	-36.01
1123.82	-533.67
1124.461	-466.08
1125.103	705.35
1125.746	125.78
1126.389	-492.71
1127.032	-812.19
1127.676	605
1128.32	904.01
1128.965	-537.76
1129.61	-531.62
1130.256	162.64
1130.902	674.64
1131.549	-578.72
1132.196	-685.22
1132.844	727.88
1133.491	713.55
1134.14	-595.11
1134.789	-605.35
1135.438	1088.32
1136.088	179.03
1136.738	-724.13
1137.389	-756.9
1138.04	557.9
1138.692	973.64
1139.344	-670.88
1139.996	-629.92
1140.649	586.57
1141.303	590.67
1141.957	-384.16
1142.611	-558.24
1143.266	402.26
1143.921	428.88
1144.577	-580.77
1145.233	-584.87
1145.89	242.51
1146.547	463.69
1147.205	-801.95
1147.863	-556.19
1148.521	529.23
1149.18	729.93
1149.84	-752.8
1150.5	-691.36
1151.16	226.13
1151.821	590.67
1152.482	-570.53
1153.144	-62.63
1153.806	471.89
1154.469	453.45
1155.132	-793.76
1155.796	-504.99
1156.46	549.71
1157.124	961.35
1157.789	-728.22
1158.455	-646.3
1159.121	396.11
1159.787	82.77
1160.454	-572.58
1161.121	-535.71
1161.789	303.95
1162.457	611.15
1163.126	-539.81
1163.795	-531.62
1164.465	449.36
1165.135	123.73
1165.806	-449.7
1166.477	-519.33
1167.148	-287.91
1167.82	525.13
1168.493	-830.62
1169.166	-445.6
1169.839	33.62
1170.513	418.64
1171.187	-705.7
1171.862	-523.43
1172.537	213.84
1173.213	435.02
1173.889	-591.01
1174.566	-670.88
1175.243	680.78
1175.921	246.61
1176.599	-455.84
1177.278	-369.83
1177.957	-36.01
1178.636	877.38
1179.316	-449.7
1179.997	-740.51
1180.678	553.8
1181.359	691.02
1182.041	-701.6
1182.723	-695.46
1183.406	611.15
1184.089	58.2
1184.773	-728.22
1185.457	-855.2
1186.142	127.83
1186.827	1358.66
1187.513	-752.8
1188.199	-253.09
1188.886	136.02
1189.573	332.62
1190.26	-621.73
1190.948	-615.59
1191.637	-68.78
1192.326	176.98
1193.015	-707.74
1193.705	-855.2
1194.396	90.96
1195.087	246.61
1195.778	-480.42
1196.47	-703.65
1197.162	410.45
1197.855	512.85
1198.548	-742.56
1199.242	-867.49
1199.936	451.41
1200.631	686.92
1201.326	-867.49
1202.022	-752.8
1202.718	699.21
1203.415	404.3
1204.112	-933.02
1204.81	-535.71
1205.508	142.16
1206.206	1028.93
1206.905	-695.46
1207.605	-709.79
1208.305	336.72
1209.005	502.61
1209.706	-711.84
1210.408	-701.6
1211.11	265.04
1211.812	406.35
1212.515	-548
1213.218	-560.29
1213.922	334.67
1214.627	226.13
1215.331	-545.95
1216.037	-572.58
1216.743	-3.24
1217.449	373.58
1218.156	-445.6
1218.863	-486.56
1219.571	234.32
1220.279	779.08
1220.988	-732.32
1221.697	-617.63
1222.406	650.06
1223.117	111.44
1223.827	-564.39
1224.538	-603.3
1225.25	320.34
1225.962	435.02
1226.675	-928.92
1227.388	-468.13
1228.101	285.52
1228.815	25.43
1229.53	-507.04
1230.245	-449.7
1230.961	480.08
1231.677	283.47
1232.393	-601.25
1233.11	-595.11
1233.828	1024.84
1234.546	545.61
1235.264	-662.69
1235.983	-308.39
1236.702	1051.46
1237.422	326.48
1238.143	-404.64
1238.864	-699.55
1239.585	691.02
1240.307	-220.33
1241.029	-760.99
1241.752	-304.29
1242.476	615.24
1243.2	785.23
1243.924	-537.76
1244.649	-548
1245.374	787.27
1246.1	889.67
1246.826	-933.02
1247.553	-638.11
1248.28	484.17
1249.008	484.17
1249.737	-736.42
1250.465	-408.74
1251.195	467.79
1251.925	787.27
1252.655	-697.5
1253.386	-345.25
1254.117	246.61
1254.849	146.26
1255.581	-537.76
1256.314	-408.74
1257.047	693.07
1257.781	506.7
1258.515	-674.98
1259.25	-130.22
1259.985	336.72
1260.721	437.07
1261.457	-474.28
1262.194	-904.35
1262.931	271.19
1263.669	795.47
1264.407	-427.17
1265.146	-822.43
1265.885	357.2
1266.625	205.65
1267.365	-644.26
1268.106	-625.83
1268.847	365.39
1269.589	138.07
1270.331	-410.79
1271.074	-423.08
1271.817	414.54
1272.561	475.98
1273.305	-351.4
1274.05	-525.47
1274.795	342.86
1275.541	422.73
1276.287	-885.92
1277.034	-695.46
1277.781	58.2
1278.529	578.38
1279.277	-826.53
1280.026	-818.33
1280.775	779.08
1281.525	-484.52
1282.275	-894.11
1283.026	-124.07
1283.777	336.72
1284.529	369.49
1285.281	-457.89
1286.034	-793.76
1286.788	740.17
1287.541	422.73
1288.296	-908.44
1289.051	-396.45
1289.806	478.03
1290.562	545.61
1291.318	-769.18
1292.075	-511.14
1292.832	738.12
1293.59	871.24
1294.349	-740.51
1295.108	-580.77
1295.867	1037.13
1296.627	652.11
1297.387	-758.94
1298.148	-457.89
1298.91	377.68
1299.672	11.09
1300.434	-674.98
1301.197	-824.48
1301.961	1248.07
1302.725	328.53
1303.489	-410.79
1304.254	-545.95
1305.02	445.26
1305.786	740.17
1306.552	-908.44
1307.319	-873.63
1308.087	754.51
1308.855	828.23
1309.624	-683.17
1310.393	-429.22
1311.162	-105.64
1311.933	531.28
1312.703	-644.26
1313.474	-412.84
1314.246	287.57
1315.018	582.48
1315.791	-214.18
1316.564	-767.13
1317.338	680.78
1318.112	242.51
1318.887	-812.19
1319.662	-572.58
1320.438	449.36
1321.214	262.99
1321.991	-406.69
1322.769	-711.84
1323.546	426.83
1324.325	21.33
1325.104	-752.8
1325.883	-502.95
1326.663	-54.44
1327.444	435.02
1328.224	-681.12
1329.006	-593.06
1329.788	326.48
1330.571	437.07
1331.354	-294.05
1332.137	-777.37
1332.921	783.18
1333.706	-27.82
1334.491	-339.11
1335.277	-576.67
1336.063	107.35
1336.849	281.43
1337.637	-687.26
1338.424	-668.83
1339.213	955.21
1340.001	881.48
1340.791	-785.57
1341.581	-441.51
1342.371	574.28
1343.162	279.38
1343.953	-648.35
1344.745	-445.6
1345.537	533.33
1346.33	516.94
1347.124	-662.69
1347.918	-388.26
1348.712	901.96
1349.507	545.61
1350.303	-537.76
1351.099	-498.85
1351.896	95.06
1352.693	-218.28
1353.49	-638.11
1354.289	-617.63
1355.087	506.7
1355.887	838.47
1356.686	-498.85
1357.487	-611.49
1358.288	50
1359.089	254.8
1359.891	-249
1360.693	-552.1
1361.496	-179.37
1362.3	232.27
1363.104	-666.78
1363.908	-703.65
1364.713	820.04
1365.519	881.48
1366.325	-679.07
1367.131	-801.95
1367.939	363.34
1368.746	820.04
1369.555	-961.69
1370.363	-537.76
1371.173	961.35
1371.982	1299.27
1372.793	-695.46
1373.604	-900.25
1374.415	521.04
1375.227	885.58
1376.039	-744.61
1376.852	-734.37
1377.666	971.59
1378.48	424.78
1379.295	-736.42
1380.11	-828.57
1380.925	-27.82
1381.742	1018.69
1382.558	-586.91
1383.376	-674.98
1384.193	375.63
1385.012	172.88
1385.831	-572.58
1386.65	-582.82
1387.47	187.22
1388.29	176.98
1389.111	-574.63
1389.933	-824.48
1390.755	707.4
1391.578	379.73
1392.401	-859.29
1393.225	-617.63
1394.049	916.3
1394.873	228.18
1395.699	-687.26
1396.525	-597.15
1397.351	729.93
1398.178	66.39
1399.005	-545.95
1399.833	-1146.01
1400.662	492.37
1401.491	895.82
1402.321	-619.68
1403.151	-580.77
1403.981	400.21
1404.813	609.1
1405.644	-392.36
1406.477	-769.18
1407.309	299.86
1408.143	1106.76
1408.977	-648.35
1409.811	-613.54
1410.646	983.88
1411.482	807.75
1412.318	-564.39
1413.155	-670.88
1413.992	719.69
1414.829	84.82
1415.668	-701.6
1416.506	-470.18
1417.346	779.08
1418.186	301.9
1419.026	-728.22
1419.867	-883.87
1420.709	770.89
1421.551	648.01
1422.393	-963.74
1423.236	-457.89
1424.08	451.41
1424.924	437.07
1425.769	-709.79
1426.614	-593.06
1427.46	435.02
1428.307	346.96
1429.154	-877.73
1430.001	-711.84
1430.849	426.83
1431.698	256.85
1432.547	-822.43
1433.397	-920.73
1434.247	772.94
1435.098	942.92
1435.949	-656.54
1436.801	-644.26
1437.653	131.92
1438.506	693.07
1439.36	-965.79
1440.214	-742.56
1441.069	453.45
1441.924	435.02
1442.78	-660.64
1443.636	-836.77
1444.493	279.38
1445.35	408.4
1446.208	-513.19
1447.067	-717.98
1447.926	402.26
1448.785	869.19
1449.645	-658.59
1450.506	-756.9
1451.367	353.1
1452.229	78.68
1453.091	-801.95
1453.954	-330.92
1454.818	299.86
1455.682	414.54
1456.546	-646.3
1457.412	-875.68
1458.277	762.7
1459.143	273.23
1460.01	-392.36
1460.878	-742.56
1461.745	445.26
1462.614	52.05
1463.483	-818.33
1464.352	-412.84
1465.223	623.44
1466.093	660.3
1466.964	-781.47
1467.836	-810.14
1468.709	795.47
1469.581	295.76
1470.455	-523.43
1471.329	-687.26
1472.203	101.2
1473.079	170.83
1473.954	-310.44
1474.831	-728.22
1475.707	119.64
1476.585	172.88
1477.463	-701.6
1478.341	-601.25
1479.22	66.39
1480.1	480.08
1480.98	-957.6
1481.861	-826.53
1482.742	439.12
1483.624	586.57
1484.506	-455.84
1485.389	-533.67
1486.273	176.98
1487.157	303.95
1488.041	-699.55
1488.926	-916.64
1489.812	428.88
1490.699	416.59
1491.585	-740.51
1492.473	-572.58
1493.361	-156.84
1494.249	299.86
1495.139	-554.15
1496.028	-515.23
1496.919	-21.67
1497.809	467.79
1498.701	-740.51
1499.593	-634.02
1500.485	340.82
1501.378	846.66
1502.272	-324.77
1503.166	-513.19
1504.061	711.5
1504.956	455.5
1505.852	-670.88
1506.749	-867.49
1507.646	588.62
1508.543	338.77
1509.442	-863.39
1510.34	-203.94
1511.24	1076.04
1512.14	369.49
1513.04	-660.64
1513.941	-826.53
1514.843	1200.96
1515.745	9.05
1516.648	-597.15
1517.551	-978.08
1518.455	-124.07
1519.359	-265.38
1520.264	-781.47
1521.17	-810.14
1522.076	226.13
1522.983	518.99
1523.89	-783.52
1524.798	-437.41
1525.706	398.16
1526.615	1291.07
1527.525	-822.43
1528.435	-597.15
1529.346	533.33
1530.257	68.44
1531.169	-359.59
1532.081	-736.42
1532.994	1002.31
1533.908	330.58
1534.822	-605.35
1535.737	-588.96
1536.652	385.87
1537.568	394.06
1538.484	-668.83
1539.401	-916.64
1540.319	809.8
1541.237	-52.39
1542.156	-801.95
1543.075	-750.75
1543.995	934.73
1544.916	1147.72
1545.837	-834.72
1546.758	-812.19
1547.68	736.07
1548.603	731.98
1549.527	-427.17
1550.451	-824.48
1551.375	418.64
1552.3	740.17
1553.226	-869.53
1554.152	-767.13
1555.079	770.89
1556.006	443.21
1556.934	-408.74
1557.863	-556.19
1558.792	949.06
1559.722	219.99
1560.652	-498.85
1561.583	-928.92
1562.514	9.05
1563.446	146.26
1564.379	-1055.9
1565.312	-461.99
1566.246	643.92
1567.18	402.26
1568.115	-494.76
1569.051	-697.5
1569.987	799.56
1570.924	865.1
1571.861	-863.39
1572.799	-550.05
1573.737	594.76
1574.676	469.84
1575.616	-523.43
1576.556	-703.65
1577.497	4.95
1578.438	213.84
1579.38	-738.46
1580.323	-617.63
1581.266	553.8
1582.21	725.83
1583.154	-728.22
1584.099	-744.61
1585.044	549.71
1585.99	682.83
1586.937	-306.34
1587.884	-511.14
1588.832	301.9
1589.78	834.38
1590.729	-644.26
1591.679	-392.36
1592.629	383.82
1593.58	504.65
1594.531	-552.1
1595.483	-496.8
1596.435	109.4
1597.388	45.91
1598.342	-335.01
1599.296	-543.91
1600.251	641.87
1601.207	805.71
1602.163	-562.34
1603.119	-717.98
1604.077	787.27
1605.034	963.4
1605.993	-504.99
1606.952	-5.29
1607.911	349.01
1608.872	394.06
1609.832	-711.84
1610.794	-875.68
1611.756	713.55
1612.718	428.88
1613.681	-249
1614.645	-572.58
1615.609	869.19
1616.574	295.76
1617.54	-117.93
1618.506	-597.15
1619.472	736.07
1620.44	807.75
1621.408	-132.26
1622.376	-507.04
1623.345	410.45
1624.315	756.55
1625.285	-500.9
1626.256	-511.14
1627.227	377.68
1628.199	31.57
1629.172	-478.37
1630.145	-400.55
1631.119	508.75
1632.094	1053.51
1633.069	-572.58
1634.044	-375.97
1635.02	183.12
1635.997	674.64
1636.975	-613.54
1637.953	-832.67
1638.931	1020.74
1639.911	70.48
1640.89	-769.18
1641.871	-634.02
1642.852	549.71
1643.833	484.17
1644.816	-777.37
1645.798	-834.72
1646.782	938.82
1647.766	123.73
1648.75	-740.51
1649.736	-699.55
1650.721	90.96
1651.708	486.22
1652.695	-650.4
1653.682	-515.23
1654.671	408.4
1655.66	672.59
1656.649	-629.92
1657.639	-683.17
1658.63	-54.44
1659.621	230.23
1660.613	-883.87
1661.605	-883.87
1662.598	271.19
1663.592	254.8
1664.586	-810.14
1665.581	-769.18
1666.576	283.47
1667.572	426.83
1668.569	-691.36
1669.566	-748.7
1670.564	586.57
1671.563	754.51
1672.562	-621.73
1673.562	-302.25
1674.562	478.03
1675.563	611.15
1676.564	-373.92
1677.566	-629.92
1678.569	959.3
1679.572	-335.01
1680.576	-603.3
1681.581	-693.41
1682.586	217.94
1683.592	529.23
1684.598	-543.91
1685.605	-488.61
1686.613	635.72
1687.621	246.61
1688.63	-437.41
1689.639	-425.12
1690.649	185.17
1691.66	408.4
1692.671	-435.36
1693.683	-707.74
1694.696	70.48
1695.709	545.61
1696.722	-642.21
1697.737	-642.21
1698.752	156.5
1699.767	504.65
1700.783	-554.15
1701.8	-380.07
1702.818	445.26
1703.836	-48.3
1704.854	-851.1
1705.873	-572.58
1706.893	232.27
1707.914	338.77
1708.935	-601.25
1709.956	-703.65
1710.979	387.92
1712.002	281.43
1713.025	-631.97
1714.049	-588.96
1715.074	541.52
1716.099	645.96
1717.125	-677.02
1718.152	-758.94
1719.179	164.69
1720.207	656.2
1721.235	-119.98
1722.265	-124.07
1723.294	359.25
1724.325	209.75
1725.355	-367.78
1726.387	-531.62
1727.419	291.66
1728.452	627.53
1729.485	-490.66
1730.519	-769.18
1731.554	123.73
1732.589	461.65
1733.625	-715.94
1734.662	-601.25
1735.699	-60.59
1736.736	615.24
1737.775	-736.42
1738.814	-609.44
1739.853	164.69
1740.894	140.12
1741.934	-461.99
1742.976	-672.93
1744.018	615.24
1745.061	349.01
1746.104	-738.46
1747.148	-765.09
1748.193	369.49
1749.238	281.43
1750.284	-527.52
1751.33	-808.09
1752.377	525.13
1753.425	1149.76
1754.473	-599.2
1755.522	-537.76
1756.572	899.91
1757.622	508.75
1758.673	-789.66
1759.724	-562.34
1760.776	772.94
1761.829	838.47
1762.882	-365.73
1763.936	-752.8
1764.991	123.73
1766.046	1026.89
1767.102	-384.16
1768.158	-765.09
1769.215	389.97
1770.273	551.76
1771.331	-521.38
1772.39	-713.89
1773.45	447.31
1774.51	414.54
1775.571	-769.18
1776.632	-169.13
1777.694	316.24
1778.757	488.27
1779.82	-363.69
1780.884	-568.48
1781.949	105.3
1783.014	549.71
1784.08	-857.25
1785.147	-646.3
1786.214	201.55
1787.282	160.59
1788.35	-488.61
1789.419	-433.32
1790.489	666.44
1791.559	363.34
1792.63	-670.88
1793.702	-326.82
1794.774	260.95
1795.847	619.34
1796.92	-343.21
1797.994	-507.04
1799.069	428.88
1800.144	1172.29
1801.22	-593.06
1802.297	-351.4
1803.374	9.05
1804.452	426.83
1805.531	-707.74
1806.61	-390.31
1807.69	537.42
1808.77	15.19
1809.851	-519.33
1810.933	-783.52
1812.015	754.51
1813.098	54.1
1814.182	-550.05
1815.266	-543.91
1816.351	338.77
1817.437	424.78
1818.523	-511.14
1819.61	-535.71
1820.697	467.79
1821.785	1139.52
1822.874	-484.52
1823.963	-593.06
1825.053	312.14
1826.144	484.17
1827.235	-650.4
1828.327	-631.97
1829.42	394.06
1830.513	15.19
1831.607	-777.37
1832.701	-621.73
1833.796	303.95
1834.892	725.83
1835.989	-822.43
1837.086	-793.76
1838.183	482.13
1839.282	336.72
1840.381	-609.44
1841.48	-640.16
1842.581	430.93
1843.682	895.82
1844.783	-337.06
1845.885	-390.31
1846.988	756.55
1848.092	457.55
1849.196	-484.52
1850.301	-425.12
1851.406	131.92
1852.512	1043.27
1853.619	-507.04
1854.726	-681.12
1855.834	160.59
1856.943	688.97
1858.052	-634.02
1859.162	-627.87
1860.273	396.11
1861.384	742.22
1862.496	-588.96
1863.608	-660.64
1864.721	455.5
1865.835	211.79
1866.95	-722.08
1868.065	-644.26
1869.181	197.46
1870.297	656.2
1871.414	-459.94
1872.532	-791.71
1873.65	189.27
1874.769	222.03
1875.889	-699.55
1877.009	-224.42
1878.13	430.93
1879.252	807.75
1880.374	-457.89
1881.497	-728.22
1882.62	377.68
1883.745	238.42
1884.87	-869.53
1885.995	-849.05
1887.121	324.43
1888.248	138.07
1889.376	-867.49
1890.504	-654.5
1891.632	461.65
1892.762	217.94
1893.892	-707.74
1895.023	-496.8
1896.154	199.51
1897.286	394.06
1898.419	-642.21
1899.552	-556.19
1900.686	590.67
1901.821	475.98
1902.956	-687.26
1904.092	-625.83
1905.229	951.11
1906.366	543.57
1907.504	-621.73
1908.643	-640.16
1909.782	523.09
