Data from led6500K_USB4H112691__5__12-40-53-174.txt Node

Date: Tue Dec 17 12:40:53 CET 2024
User: Etudiants TP
Spectrometer: USB4H11269
Trigger mode: 4
Integration Time (sec): 1.000000E0
Scans to average: 1
Electric dark correction enabled: true
Nonlinearity correction enabled: false
Boxcar width: 0
XAxis mode: Wavelengths
Number of Pixels in Spectrum: 3648
>>>>>Begin Spectral Data<<<<<
286.377	-1639.23
286.631	-1639.23
286.884	-1639.23
287.138	-1661.76
287.391	-1682.24
287.644	-875.34
287.896	-594.76
288.149	724.13
288.401	492.71
288.653	-527.18
288.905	-490.32
289.157	820.38
289.409	380.07
289.661	-465.74
289.912	-791.37
290.163	574.63
290.414	752.8
290.665	-740.17
290.916	-652.11
291.166	562.34
291.417	1037.47
291.667	-633.68
291.917	-201.55
292.167	388.26
292.417	353.45
292.666	-793.42
292.916	-566.09
293.165	550.05
293.414	771.23
293.663	-949.06
293.912	-822.09
294.16	748.7
294.408	672.93
294.657	-752.46
294.905	-547.66
295.153	636.06
295.4	672.93
295.648	-867.14
295.895	-779.08
296.143	214.18
296.39	818.33
296.637	-637.77
296.884	-678.73
297.13	779.42
297.377	871.58
297.623	-605
297.869	-355.15
298.115	728.22
298.361	804
298.606	-838.47
298.852	-629.58
299.097	607.39
299.342	1127.58
299.587	-453.45
299.832	-656.2
300.077	693.41
300.322	525.47
300.566	-731.98
300.81	-523.09
301.054	558.24
301.298	785.57
301.542	-228.18
301.785	-424.78
302.029	955.55
302.272	715.94
302.515	-834.38
302.758	-639.82
303.001	787.61
303.244	666.78
303.486	-551.76
303.729	-936.78
303.971	945.31
304.213	734.37
304.455	-809.8
304.696	-291.66
304.938	281.77
305.179	734.37
305.421	-385.87
305.662	-445.26
305.903	418.98
306.143	423.08
306.384	-512.85
306.625	-482.13
306.865	459.94
307.105	294.05
307.345	-441.17
307.585	-539.47
307.825	132.26
308.064	781.47
308.304	-633.68
308.543	-875.34
308.782	595.11
309.021	916.64
309.26	-426.83
309.499	-566.09
309.737	967.84
309.976	801.95
310.214	-766.79
310.452	-697.16
310.69	1131.67
310.928	224.42
311.165	-637.77
311.403	-684.87
311.64	920.73
311.878	707.74
312.115	-527.18
312.351	-486.22
312.588	431.27
312.825	988.32
313.061	-822.09
313.298	9.39
313.534	306.34
313.77	836.77
314.006	-588.62
314.241	-645.96
314.477	695.46
314.713	1254.55
314.948	-607.05
315.183	220.33
315.418	967.84
315.653	597.15
315.888	-707.4
316.122	-459.6
316.357	396.45
316.591	840.86
316.825	-537.42
317.059	-625.48
317.293	1000.6
317.527	570.53
317.76	-654.16
317.994	-510.8
318.227	742.56
318.46	1197.21
318.693	-731.98
318.926	-527.18
319.159	107.69
319.391	533.67
319.624	-809.8
319.856	-605
320.088	824.48
320.321	658.59
320.552	-265.04
320.784	-629.58
321.016	779.42
321.247	-7
321.479	-365.39
321.71	-330.58
321.941	-123.73
322.172	1107.1
322.403	-695.11
322.633	-332.62
322.864	791.71
323.094	214.18
323.325	36.01
323.555	-713.55
323.785	275.62
324.014	316.58
324.244	-437.07
324.474	-387.92
324.703	986.27
324.933	902.3
325.162	-375.63
325.391	-797.51
325.62	46.25
325.848	830.62
326.077	-518.99
326.306	-412.5
326.534	699.55
326.762	992.41
326.99	-553.8
327.218	-316.24
327.446	674.98
327.674	60.59
327.901	-602.96
328.129	-682.83
328.356	834.72
328.583	249
328.81	-666.44
329.037	-432.97
329.264	511.14
329.491	937.12
329.717	-494.41
329.944	-635.72
330.17	392.36
330.396	119.98
330.622	-629.58
330.848	-344.91
331.074	474.28
331.299	1467.54
331.525	-629.58
331.75	-619.34
331.975	978.08
332.201	269.48
332.426	-887.62
332.65	-736.07
332.875	-62.29
333.1	478.37
333.324	-752.46
333.549	-764.75
333.773	271.53
333.997	588.96
334.221	-639.82
334.445	-615.24
334.668	566.43
334.892	1125.53
335.116	-340.82
335.339	-570.19
335.562	1.19
335.785	459.94
336.008	-402.26
336.231	-662.35
336.454	-174.93
336.676	978.08
336.899	-510.8
337.121	-279.38
337.343	66.73
337.566	636.06
337.788	-568.14
338.009	-688.97
338.231	111.78
338.453	521.38
338.674	3210.36
338.896	-441.17
339.117	-54.1
339.338	1027.23
339.559	-639.82
339.78	-596.81
340.001	99.5
340.222	879.77
340.442	-588.62
340.663	-191.31
340.883	705.7
341.103	396.45
341.323	-580.43
341.543	-336.72
341.763	838.81
341.983	308.39
342.202	-770.89
342.422	-711.5
342.641	1103
342.861	437.41
343.08	-119.64
343.299	-680.78
343.518	654.5
343.736	552.1
343.955	-637.77
344.174	-688.97
344.392	832.67
344.61	74.92
344.829	-727.88
345.047	-596.81
345.265	656.54
345.483	945.31
345.7	-605
345.918	-195.41
346.136	13.48
346.353	859.29
346.57	-701.26
346.788	-676.68
347.005	398.5
347.222	52.39
347.438	-72.53
347.655	-498.51
347.872	107.69
348.088	1111.19
348.305	-383.82
348.521	-574.28
348.737	193.7
348.953	1004.7
349.169	-152.4
349.385	-467.79
349.601	476.32
349.817	-23.38
350.032	-152.4
350.248	-365.39
350.463	1229.98
350.678	-248.66
350.893	-578.38
351.108	-697.16
351.323	5.29
351.538	795.81
351.753	-631.63
351.967	-588.62
352.182	887.97
352.396	230.57
352.61	-760.65
352.824	-543.57
353.038	660.64
353.252	820.38
353.466	-424.78
353.68	-625.48
353.894	435.36
354.107	156.84
354.32	-424.78
354.534	-547.66
354.747	709.79
354.96	-136.02
355.173	-361.3
355.386	-873.29
355.599	496.8
355.811	279.72
356.024	-707.4
356.236	-506.7
356.449	320.68
356.661	369.83
356.873	-742.22
357.085	-875.34
357.297	552.1
357.509	601.25
357.721	-596.81
357.933	-600.91
358.144	261.29
358.356	216.23
358.567	-314.19
358.778	-682.83
358.989	953.5
359.2	197.8
359.411	-465.74
359.622	-297.81
359.833	480.42
360.044	373.92
360.254	-539.47
360.465	-768.84
360.675	560.29
360.885	451.75
361.096	-764.75
361.306	-553.8
361.516	199.85
361.726	439.46
361.935	-826.18
362.145	-600.91
362.355	550.05
362.564	601.25
362.774	-811.85
362.983	-768.84
363.192	930.97
363.401	134.31
363.61	-744.27
363.819	-410.45
364.028	394.4
364.237	959.64
364.445	-531.28
364.654	-373.58
364.862	375.97
365.071	214.18
365.279	-498.51
365.487	-641.87
365.695	558.24
365.903	378.02
366.111	-762.7
366.319	-602.96
366.527	619.68
366.734	369.83
366.942	-488.27
367.149	-752.46
367.357	-506.7
367.564	1039.51
367.771	-531.28
367.978	-648.01
368.185	189.61
368.392	347.3
368.599	-269.14
368.806	-596.81
369.013	11.43
369.219	570.53
369.426	-891.72
369.632	-228.18
369.838	1137.82
370.044	615.59
370.251	-592.72
370.457	-551.76
370.663	844.96
370.868	464.04
371.074	-547.66
371.28	-711.5
371.485	-179.03
371.691	625.83
371.896	-621.39
372.102	-705.35
372.307	1111.19
372.512	857.25
372.717	-682.83
372.922	-162.64
373.127	58.54
373.332	515.23
373.537	-605
373.741	-570.19
373.946	502.95
374.151	312.49
374.355	-826.18
374.559	-471.89
374.764	193.7
374.968	-330.58
375.172	-652.11
375.376	-312.14
375.58	509.09
375.784	83.11
375.987	-713.55
376.191	-527.18
376.395	230.57
376.598	267.43
376.802	-695.11
377.005	-199.51
377.208	224.42
377.412	146.6
377.615	-858.95
377.818	-588.62
378.021	173.22
378.224	-80.72
378.426	-545.61
378.629	-848.71
378.832	730.27
379.034	666.78
379.237	-858.95
379.439	-797.51
379.642	760.99
379.844	670.88
380.046	-899.91
380.248	-801.61
380.45	-193.36
380.652	-111.44
380.854	-521.04
381.056	-602.96
381.258	263.33
381.459	500.9
381.661	-699.21
381.862	-357.2
382.064	-56.15
382.265	179.37
382.467	-633.68
382.668	-523.09
382.869	728.22
383.07	388.26
383.271	-465.74
383.472	-617.29
383.673	760.99
383.874	459.94
384.074	-480.08
384.275	-756.55
384.476	658.59
384.676	1201.3
384.876	-744.27
385.077	-670.54
385.277	683.17
385.477	859.29
385.677	-744.27
385.878	-555.85
386.078	351.4
386.278	345.25
386.477	-326.48
386.677	-242.51
386.877	513.19
387.077	689.31
387.276	-455.5
387.476	-465.74
387.675	386.21
387.875	994.46
388.074	-719.69
388.273	-580.43
388.472	840.86
388.671	-158.55
388.87	-684.87
389.069	-136.02
389.268	-142.16
389.467	21.67
389.666	-807.75
389.865	-269.14
390.063	509.09
390.262	765.09
390.461	-633.68
390.659	-682.83
390.857	754.85
391.056	640.16
391.254	-699.21
391.452	-609.1
391.65	758.94
391.849	478.37
392.047	-510.8
392.245	-273.23
392.442	265.38
392.64	509.09
392.838	-355.15
393.036	-523.09
393.233	281.77
393.431	259.24
393.629	-854.86
393.826	-531.28
394.023	287.91
394.221	-256.85
394.418	-482.13
394.615	-260.95
394.812	-76.63
395.01	656.54
395.207	-605
395.404	-707.4
395.601	971.93
395.797	396.45
395.994	-666.44
396.191	-574.28
396.388	382.12
396.584	582.82
396.781	-338.77
396.977	1.19
397.174	586.91
397.37	-35.67
397.567	-398.16
397.763	-707.4
397.959	304.29
398.155	345.25
398.352	-523.09
398.548	-228.18
398.744	650.4
398.94	373.92
399.136	-717.64
399.331	-301.9
399.527	369.83
399.723	550.05
399.919	-392.02
400.114	-609.1
400.31	238.76
400.505	478.37
400.701	-492.37
400.896	-605
401.092	175.27
401.287	443.56
401.482	-772.94
401.678	-430.93
401.873	593.06
402.068	683.17
402.263	-467.79
402.458	-537.42
402.653	160.94
402.848	529.57
403.043	-484.17
403.237	-766.79
403.432	97.45
403.627	-121.68
403.822	-785.23
404.016	-621.39
404.211	111.78
404.405	531.62
404.6	-222.03
404.794	-240.47
404.989	476.32
405.183	154.79
405.377	-269.14
405.571	-211.79
405.766	515.23
405.96	240.81
406.154	-461.65
406.348	-441.17
406.542	664.74
406.736	468.13
406.93	-723.79
407.124	-400.21
407.318	337.06
407.511	318.63
407.705	-248.66
407.899	-664.4
408.092	504.99
408.286	439.46
408.48	-774.99
408.673	-654.16
408.867	91.31
409.06	347.3
409.253	-392.02
409.447	-475.98
409.64	566.43
409.833	472.23
410.026	-445.26
410.22	-342.86
410.413	642.21
410.606	410.79
410.799	-787.27
410.992	-547.66
411.185	285.86
411.378	1041.56
411.571	-512.85
411.764	-467.79
411.956	599.2
412.149	353.45
412.342	-351.06
412.534	-383.82
412.727	617.63
412.92	507.04
413.112	-469.84
413.305	-265.04
413.497	783.52
413.69	672.93
413.882	-414.54
414.075	-217.94
414.267	459.94
414.459	205.99
414.652	-703.31
414.844	-525.13
415.036	488.61
415.228	767.13
415.42	-334.67
415.612	-568.14
415.804	797.85
415.997	521.38
416.188	-308.05
416.38	-367.44
416.572	140.46
416.764	605.35
416.956	-588.62
417.148	-518.99
417.34	263.33
417.531	-15.19
417.723	-570.19
417.915	-420.69
418.107	165.03
418.298	480.42
418.49	-482.13
418.681	-262.99
418.873	756.9
419.064	435.36
419.256	-473.93
419.447	-529.23
419.639	529.57
419.83	701.6
420.021	-332.62
420.213	-574.28
420.404	328.87
420.595	396.45
420.786	-324.43
420.978	-334.67
421.169	597.15
421.36	279.72
421.551	-527.18
421.742	-621.39
421.933	849.05
422.124	519.33
422.315	-367.44
422.506	-465.74
422.697	535.71
422.888	296.1
423.079	-142.16
423.27	-562
423.461	242.85
423.652	210.09
423.842	-572.24
424.033	-428.88
424.224	476.32
424.415	1012.89
424.605	-320.34
424.796	-473.93
424.987	580.77
425.177	421.03
425.368	-713.55
425.558	-641.87
425.749	263.33
425.939	246.95
426.13	-115.54
426.32	-342.86
426.511	208.04
426.701	144.55
426.892	-375.63
427.082	-488.27
427.272	122.02
427.463	382.12
427.653	-416.59
427.843	-277.33
428.034	900.25
428.224	437.41
428.414	-594.76
428.604	-314.19
428.795	476.32
428.985	609.44
429.175	-111.44
429.365	-254.8
429.555	418.98
429.745	345.25
429.935	-432.97
430.126	-248.66
430.316	689.31
430.506	660.64
430.696	-406.35
430.886	-187.22
431.076	517.28
431.266	363.69
431.456	-50
431.645	-408.4
431.835	308.39
432.025	468.13
432.215	-539.47
432.405	-242.51
432.595	451.75
432.785	396.45
432.975	-457.55
433.164	-578.38
433.354	189.61
433.544	496.8
433.734	-551.76
433.923	-219.99
434.113	324.77
434.303	328.87
434.493	-258.9
434.682	-424.78
434.872	552.1
435.062	-15.19
435.251	-435.02
435.441	-392.02
435.631	859.29
435.82	292.01
436.01	-594.76
436.2	-379.73
436.389	249
436.579	779.42
436.768	-127.83
436.958	-103.25
437.147	347.3
437.337	664.74
437.527	-260.95
437.716	-465.74
437.906	705.7
438.095	253.09
438.285	-422.73
438.474	-308.05
438.664	660.64
438.853	541.86
439.043	-213.84
439.232	-596.81
439.422	427.17
439.611	582.82
439.8	-379.73
439.99	-97.11
440.179	527.52
440.369	861.34
440.558	-617.29
440.748	-424.78
440.937	189.61
441.126	5.29
441.316	-129.88
441.505	-447.31
441.695	642.21
441.884	1078.43
442.073	-260.95
442.263	-424.78
442.452	414.88
442.642	564.39
442.831	-381.78
443.02	-101.2
443.21	984.22
443.399	1291.41
443.588	-332.62
443.778	-242.51
443.967	1012.89
444.156	621.73
444.346	-447.31
444.535	-367.44
444.725	1019.04
444.914	558.24
445.103	-406.35
445.293	-176.98
445.482	1123.48
445.671	611.49
445.861	-273.23
446.05	9.39
446.239	783.52
446.429	361.64
446.618	-400.21
446.807	13.48
446.997	742.56
447.186	777.37
447.376	-170.83
447.565	25.77
447.754	1012.89
447.944	1043.61
448.133	-203.6
448.322	-301.9
448.512	523.43
448.701	1172.63
448.891	-144.21
449.08	-64.34
449.269	148.65
449.459	443.56
449.648	-236.37
449.838	-316.24
450.027	492.71
450.217	259.24
450.406	-346.96
450.595	40.11
450.785	918.68
450.974	847.01
451.164	-260.95
451.353	-129.88
451.543	822.43
451.732	1105.05
451.922	-144.21
452.111	-172.88
452.301	504.99
452.49	320.68
452.68	-340.82
452.869	287.91
453.059	468.13
453.249	988.32
453.438	-471.89
453.628	-47.96
453.817	715.94
454.007	607.39
454.197	-486.22
454.386	-158.55
454.576	1070.23
454.765	1016.99
454.955	-125.78
455.145	-191.31
455.334	672.93
455.524	480.42
455.714	-19.29
455.904	-267.09
456.093	1369.24
456.283	842.91
456.473	-265.04
456.663	-326.48
456.852	804
457.042	754.85
457.232	-45.91
457.422	439.46
457.612	722.08
457.802	990.36
457.991	-357.2
458.181	-242.51
458.371	904.35
458.561	883.87
458.751	-252.75
458.941	-211.79
459.131	713.89
459.321	558.24
459.511	66.73
459.701	-76.63
459.891	910.49
460.081	318.63
460.271	-129.88
460.461	-306
460.651	1463.44
460.841	1215.64
461.032	-117.59
461.222	-222.03
461.412	615.59
461.602	1541.27
461.792	-377.68
461.983	-330.58
462.173	724.13
462.363	1422.48
462.554	-207.7
462.744	-191.31
462.934	992.41
463.125	799.9
463.315	-346.96
463.505	-58.2
463.696	926.88
463.886	459.94
464.077	-269.14
464.267	-342.86
464.458	1164.44
464.648	386.21
464.839	-54.1
465.03	-187.22
465.22	388.26
465.411	726.18
465.601	-191.31
465.792	-285.52
465.983	490.66
466.174	910.49
466.364	-514.89
466.555	-224.08
466.746	969.88
466.937	502.95
467.128	-248.66
467.319	-269.14
467.51	1008.8
467.701	1680.53
467.891	-140.12
468.082	-342.86
468.274	754.85
468.465	183.46
468.656	-19.29
468.847	-441.17
469.038	271.53
469.229	552.1
469.42	-68.44
469.612	-211.79
469.803	1010.84
469.994	857.25
470.185	-27.48
470.377	-383.82
470.568	648.35
470.76	789.66
470.951	-277.33
471.142	17.58
471.334	986.27
471.526	904.35
471.717	33.96
471.909	-396.11
472.1	627.87
472.292	820.38
472.484	-316.24
472.675	-236.37
472.867	734.37
473.059	1238.17
473.251	-80.72
473.443	-260.95
473.635	830.62
473.826	1002.65
474.018	-162.64
474.21	66.73
474.402	930.97
474.595	1287.32
474.787	-54.1
474.979	148.65
475.171	509.09
475.363	357.54
475.555	-342.86
475.748	-103.25
475.94	1123.48
476.132	699.55
476.325	-228.18
476.517	332.97
476.71	1614.99
476.902	631.97
477.095	-168.79
477.287	191.66
477.48	1123.48
477.673	1000.6
477.865	136.36
478.058	-103.25
478.251	1225.88
478.444	1402.01
478.636	117.93
478.829	-7
479.022	1092.76
479.215	1207.45
479.408	179.37
479.601	654.5
479.794	687.26
479.988	795.81
480.181	312.49
480.374	134.31
480.567	1129.63
480.76	1551.51
480.954	222.38
481.147	-78.68
481.341	920.73
481.534	1025.18
481.728	347.3
481.921	515.23
482.115	1424.53
482.308	1676.43
482.502	107.69
482.696	296.1
482.89	1991.82
483.084	1377.43
483.277	431.27
483.471	478.37
483.665	1535.12
483.859	2362.5
484.053	126.12
484.247	222.38
484.442	1320.09
484.636	1404.05
484.83	365.73
485.024	550.05
485.219	1285.27
485.413	1225.88
485.608	406.69
485.802	795.81
485.997	1834.13
486.191	1471.64
486.386	523.43
486.58	736.42
486.775	1729.68
486.97	1967.24
487.165	681.12
487.36	664.74
487.555	1543.32
487.75	1645.71
487.945	887.97
488.14	541.86
488.335	1504.4
488.53	1496.21
488.725	603.3
488.92	1043.61
489.116	2405.51
489.311	1895.57
489.507	740.51
489.702	1453.2
489.898	2401.41
490.093	1580.18
490.289	1520.79
490.485	959.64
490.68	1541.27
490.876	2579.59
491.072	1008.8
491.268	1172.63
491.464	2612.35
491.66	2387.08
491.856	1262.74
492.052	1731.73
492.248	2509.96
492.445	2327.69
492.641	1385.62
492.837	1299.61
493.034	2772.1
493.23	2886.78
493.427	1903.76
493.623	1453.2
493.82	2479.24
494.017	3099.77
494.214	1584.27
494.41	1563.79
494.607	2792.58
494.804	2434.18
495.001	1946.76
495.198	1897.61
495.395	3015.8
495.593	3044.48
495.79	1883.28
495.987	1762.45
496.184	2493.57
496.382	3224.7
496.579	1848.46
496.777	2264.2
496.974	3712.11
497.172	3335.29
497.37	2352.26
497.568	2086.03
497.766	4170.86
497.963	3296.38
498.161	2366.6
498.359	2643.07
498.558	4045.93
498.756	3859.57
498.954	2559.11
499.152	3036.28
499.351	3781.74
499.549	3767.41
499.747	2827.39
499.946	2776.19
500.145	3699.83
500.343	3875.95
500.542	2935.93
500.741	3034.24
500.94	4269.16
501.139	4361.32
501.338	3218.55
501.537	3433.59
501.736	4973.66
501.935	4549.73
502.134	3290.23
502.334	3548.28
502.533	4705.38
502.733	4641.89
502.932	3708.02
503.132	3630.2
503.331	4490.34
503.531	4959.33
503.731	3757.17
503.931	3722.35
504.131	4533.35
504.331	5332.06
504.531	3945.58
504.731	4185.19
504.931	5127.26
505.132	5098.59
505.332	4349.03
505.532	4080.75
505.733	5528.66
505.933	6018.13
506.134	4516.97
506.335	4377.7
506.536	5160.03
506.736	5854.29
506.937	4682.85
507.138	4539.49
507.34	6653
507.541	6003.79
507.742	5020.77
507.943	4703.33
508.145	5901.39
508.346	5571.67
508.548	4732
508.749	4951.14
508.951	5760.08
509.153	6014.03
509.354	5203.04
509.556	5276.76
509.758	6464.58
509.96	5989.46
510.163	5557.33
510.365	5612.63
510.567	6171.72
510.769	6331.47
510.972	5569.62
511.174	5964.88
511.377	6167.63
511.58	7826.48
511.782	5821.52
511.985	5696.6
512.188	7523.38
512.391	7124.03
512.594	5921.87
512.797	6257.74
513.001	7373.88
513.204	7711.8
513.407	6212.68
513.611	6341.71
513.814	7359.55
514.018	7775.28
514.222	6452.3
514.425	6579.27
514.629	7488.57
514.833	7476.28
515.037	6835.27
515.241	6417.48
515.445	7652.41
515.65	7275.58
515.854	7062.59
516.059	6874.18
516.263	7906.35
516.468	8197.17
516.672	7140.41
516.877	7128.13
517.082	7734.32
517.287	8219.69
517.492	7240.76
517.697	7146.56
517.902	8277.04
518.107	7914.55
518.313	7509.05
518.518	7121.98
518.724	8932.39
518.929	8313.9
519.135	7476.28
519.341	7005.25
519.547	8512.55
519.753	8784.93
519.959	7488.57
520.165	7545.91
520.371	9004.07
520.577	9532.44
520.784	7455.8
520.99	8096.82
521.197	8858.66
521.404	8549.42
521.61	7593.01
521.817	7849.01
522.024	9626.65
522.231	8627.24
522.438	7689.27
522.645	8408.11
522.853	8965.15
523.06	9335.84
523.268	8156.21
523.475	8309.8
523.683	9319.45
523.891	9268.25
524.098	8045.62
524.306	8391.72
524.514	9253.92
524.722	9339.93
524.931	8434.73
525.139	8221.74
525.347	8911.91
525.556	9327.64
525.764	8543.27
525.973	8528.94
526.182	9589.78
526.391	9200.67
526.6	8565.8
526.809	8965.15
527.018	9636.89
527.227	9939.99
527.436	8827.94
527.646	8741.93
527.855	9946.13
528.065	9475.1
528.275	8666.15
528.484	8930.34
528.694	10126.35
528.904	9913.36
529.114	9085.98
529.325	9307.16
529.535	9649.18
529.745	10097.68
529.956	8932.39
530.166	9194.53
530.377	10408.97
530.588	10595.34
530.799	9430.04
531.01	9331.74
531.221	10468.36
531.432	10771.46
531.643	9368.6
531.855	9929.75
532.066	10540.04
532.278	10290.19
532.489	9530.39
532.701	9380.89
532.913	10777.61
533.125	10699.78
533.337	9137.18
533.549	9427.99
533.762	10593.29
533.974	10064.91
534.186	9288.73
534.399	9772.05
534.612	11146.24
534.825	10810.37
535.037	9964.56
535.25	9925.65
535.464	10468.36
535.677	11111.43
535.89	9700.37
536.104	10134.54
536.317	10664.97
536.531	10851.33
536.744	10333.2
536.958	10036.24
537.172	11146.24
537.386	10947.59
537.6	10138.64
537.815	10136.59
538.029	11215.87
538.244	11371.52
538.458	9835.54
538.673	10107.92
538.888	11387.9
539.103	11740.15
539.318	10544.14
539.533	10200.08
539.748	11158.53
539.963	10767.37
540.179	9925.65
540.394	9997.33
540.61	10867.72
540.826	11179.01
541.042	10419.21
541.258	10198.03
541.474	12002.29
541.69	11463.68
541.906	10617.86
542.123	10494.99
542.339	11586.55
542.556	11129.86
542.773	10712.07
542.99	10675.21
543.207	11346.94
543.424	11293.69
543.641	10800.13
543.858	11437.05
544.076	11369.47
544.293	11578.36
544.511	10437.64
544.729	10763.27
544.947	11799.54
545.165	11666.42
545.383	10882.05
545.601	10900.48
545.819	12043.25
546.038	11930.61
546.256	11236.35
546.475	10978.31
546.694	12938.21
546.913	12291.06
547.132	11703.29
547.351	11136
547.57	11797.49
547.79	11871.22
548.009	11394.04
548.229	11281.41
548.449	11992.05
548.668	12592.11
548.888	11588.6
549.109	11420.67
549.329	12536.81
549.549	12534.76
549.77	11535.35
549.99	11688.95
550.211	12575.72
550.432	12932.07
550.653	11666.42
550.874	11889.65
551.095	13214.69
551.316	12657.64
551.538	11598.84
551.759	11836.41
551.981	12850.15
552.203	13212.64
552.424	11840.5
552.646	12309.49
552.869	12977.12
553.091	12784.62
553.313	12368.88
553.536	12157.94
553.758	13474.78
553.981	13059.04
554.204	12192.75
554.427	12413.93
554.65	13413.34
554.873	12645.35
555.097	11965.43
555.32	12164.08
555.544	13913.05
555.768	13677.53
555.992	12250.1
556.216	12506.09
556.44	13022.18
556.664	14083.03
556.888	12909.54
557.113	12262.38
557.337	14195.67
557.562	14005.2
557.787	12604.39
558.012	12841.96
558.237	13726.68
558.462	13845.46
558.688	13300.7
558.913	13136.87
559.139	13560.8
559.365	14095.32
559.591	12852.2
559.817	12790.76
560.043	14406.61
560.269	14742.47
560.496	13704.15
560.722	13319.14
560.949	14699.47
561.176	13661.15
561.403	13319.14
561.63	13714.39
561.857	13951.96
562.084	14097.36
562.312	13298.66
562.539	13661.15
562.767	15125.44
562.995	14379.98
563.223	13642.71
563.451	13767.64
563.679	14404.56
563.908	14928.84
564.136	13999.06
564.365	14121.94
564.594	14443.47
564.823	15944.63
565.052	14181.33
565.281	13980.63
565.51	15066.05
565.74	14861.26
565.969	13835.22
566.199	14316.5
566.429	15487.93
566.659	15485.89
566.889	14447.57
567.119	14265.3
567.35	15776.7
567.58	15762.36
567.811	14705.61
568.042	14480.33
568.273	15254.47
568.504	15856.57
568.735	14765
568.966	14957.51
569.198	15881.14
569.43	16200.63
569.661	14910.41
569.893	15176.64
570.125	16307.12
570.358	16245.68
570.59	14844.87
570.822	14945.22
571.055	16376.75
571.288	16212.92
571.521	15012.81
571.754	15383.49
571.987	16642.99
572.22	16049.08
572.454	15209.41
572.687	15410.11
572.921	15805.37
573.155	16319.41
573.389	16364.46
573.623	15709.11
573.858	16206.77
574.092	16696.24
574.327	15969.21
574.561	16014.26
574.796	16423.86
575.031	16724.91
575.266	15838.14
575.502	16069.56
575.737	16960.42
575.973	16872.36
576.209	16294.83
576.445	15942.58
576.681	16501.68
576.917	17267.62
577.153	16124.85
577.39	16229.3
577.626	17046.44
577.863	17044.39
578.1	16360.37
578.337	16376.75
578.574	17197.99
578.812	17294.24
579.049	16608.17
579.287	16425.9
579.525	17793.95
579.763	17599.39
580.001	16260.02
580.239	16720.81
580.478	18017.18
580.716	17742.75
580.955	16901.03
581.194	17134.5
581.433	18117.53
581.672	17255.33
581.911	16733.1
582.151	16323.51
582.39	17533.86
582.63	18326.42
582.87	16657.32
583.11	16905.13
583.35	17421.22
583.591	17906.59
583.831	17300.39
584.072	17292.19
584.313	18095
584.554	17965.98
584.795	17314.72
585.036	17552.29
585.277	18650
585.519	18553.74
585.761	17232.8
586.003	17146.79
586.245	18498.45
586.487	18822.03
586.729	17689.5
586.972	17562.53
587.215	19006.34
587.457	18011.03
587.7	17468.32
587.944	17611.68
588.187	18039.7
588.43	18164.63
588.674	17269.67
588.918	17378.21
589.162	18768.78
589.406	18039.7
589.65	17490.85
589.894	18215.83
590.139	18740.11
590.384	19073.93
590.629	17417.12
590.874	17785.76
591.119	18293.65
591.364	18854.79
591.61	17709.98
591.855	17400.74
592.101	19084.17
592.347	18869.13
592.593	17726.36
592.84	18221.97
593.086	19663.74
593.333	18418.58
593.58	17789.85
593.827	17740.7
594.074	18811.79
594.321	18627.47
594.568	17703.84
594.816	17564.57
595.064	18811.79
595.312	18797.45
595.56	17929.11
595.808	18164.63
596.057	19227.53
596.305	18977.67
596.554	17865.63
596.803	17888.15
597.052	19133.32
597.301	19395.46
597.551	17578.91
597.8	18297.75
598.05	19153.8
598.3	18703.25
598.55	17916.83
598.8	17888.15
599.051	18656.14
599.301	18832.27
599.552	17691.55
599.803	18049.94
600.054	18940.81
600.305	18824.08
600.556	18129.81
600.808	17820.57
601.06	18736.01
601.312	19153.8
601.564	18099.09
601.816	17769.37
602.068	19188.61
602.321	19215.24
602.574	17744.8
602.827	17738.65
603.08	18738.06
603.333	19082.12
603.587	17707.93
603.84	17605.53
604.094	19293.06
604.348	18693.01
604.602	17421.22
604.856	18086.81
605.111	19047.3
605.365	18912.14
605.62	17744.8
605.875	17613.73
606.13	18987.91
606.386	18975.63
606.641	17623.97
606.897	18056.09
607.153	18623.37
607.409	19151.75
607.665	17372.07
607.921	17961.88
608.178	18490.26
608.435	18787.21
608.692	17763.23
608.949	17859.48
609.206	19372.93
609.463	19100.55
609.721	18006.94
609.979	17785.76
610.237	19065.74
610.495	19303.3
610.753	18260.88
611.012	18154.39
611.27	19164.04
611.529	19006.34
611.788	18066.33
612.047	17664.93
612.307	18361.23
612.566	18985.86
612.826	17628.06
613.086	17806.23
613.346	18334.61
613.606	18979.72
613.867	17730.46
614.127	17937.3
614.388	18209.68
614.649	18908.04
614.91	17742.75
615.172	17816.47
615.433	18221.97
615.695	18686.86
615.957	17744.8
616.219	17363.87
616.481	19078.02
616.743	18281.36
617.006	17179.56
617.269	17453.98
617.532	18471.82
617.795	18768.78
618.058	17261.48
618.322	17415.07
618.586	18414.48
618.849	17955.74
619.114	17550.24
619.378	16876.46
619.642	18330.51
619.907	18477.97
620.172	17130.41
620.437	17234.85
620.702	18344.85
620.967	17671.07
621.233	17257.38
621.499	16683.95
621.765	17714.08
622.031	18002.84
622.297	16933.8
622.564	16731.05
622.83	17535.9
623.097	18324.37
623.364	17290.15
623.631	16798.63
623.899	17775.52
624.166	17847.19
624.434	16466.86
624.702	16264.11
624.97	18066.33
625.239	17472.42
625.507	16491.44
625.776	16739.24
626.045	17341.35
626.314	17415.07
626.584	16569.26
626.853	16475.06
627.123	17535.9
627.393	16790.44
627.663	16124.85
627.933	15928.25
628.204	17527.71
628.474	16999.34
628.745	15723.45
629.016	16462.77
629.287	17103.78
629.559	16915.37
629.83	15875
630.102	15494.08
630.374	16544.69
630.646	17376.16
630.919	16024.5
631.191	15977.4
631.464	16415.66
631.737	16204.72
632.01	15635.39
632.284	15489.98
632.557	16925.61
632.831	16430
633.105	15303.62
633.379	15291.33
633.654	15967.16
633.928	16145.33
634.203	15254.47
634.478	15000.52
634.753	15815.61
635.028	15987.64
635.304	15205.31
635.58	15061.96
635.856	16120.76
636.132	15725.5
636.408	14951.37
636.685	14662.6
636.961	15731.64
637.238	15840.18
637.515	14517.2
637.793	14672.84
638.07	15977.4
638.348	15455.17
638.626	14754.76
638.904	14785.48
639.182	14834.63
639.461	15043.53
639.74	14386.13
640.019	14320.59
640.298	14533.58
640.577	15197.12
640.857	14037.97
641.136	13904.85
641.416	14832.58
641.696	15387.58
641.977	14009.3
642.257	14085.08
642.538	15035.33
642.819	15371.2
643.1	13601.76
643.382	13317.09
643.663	14871.5
643.945	14840.78
644.227	13437.92
644.509	13362.14
644.792	15004.61
645.074	14521.29
645.357	13300.7
645.64	13069.28
645.923	14304.21
646.207	14437.33
646.49	13118.43
646.774	12813.29
647.058	13960.15
647.342	14244.82
647.627	12706.79
647.911	12708.84
648.196	13935.57
648.481	13994.97
648.767	12731.37
649.052	12801
649.338	13296.61
649.624	13163.49
649.91	12510.19
650.196	12174.32
650.483	13611.99
650.77	13962.2
651.057	12497.9
651.344	12659.69
651.631	13253.6
651.919	12913.64
652.207	12170.22
652.495	12387.31
652.783	13470.69
653.071	13079.52
653.36	11592.7
653.649	11906.04
653.938	12657.64
654.227	13132.77
654.517	12116.98
654.806	11611.13
655.096	12215.28
655.387	13052.9
655.677	11555.83
655.968	11369.47
656.258	12141.55
656.549	12737.51
656.841	11539.45
657.132	11447.29
657.424	12098.55
657.716	12246
658.008	11209.73
658.3	11138.05
658.592	12241.9
658.885	12504.04
659.178	11009.03
659.471	10658.82
659.765	11357.18
660.058	11975.67
660.352	10591.24
660.646	10732.55
660.94	12252.14
661.235	11832.31
661.53	10914.82
661.824	10349.58
662.12	11523.07
662.415	10933.25
662.711	10480.65
663.006	10578.95
663.302	11176.96
663.599	10935.3
663.895	10224.65
664.192	10322.96
664.489	11488.25
664.786	11312.13
665.083	9905.17
665.381	9749.53
665.678	10734.6
665.976	10898.44
666.275	9536.54
666.573	9866.26
666.872	10306.57
667.171	10626.06
667.47	9397.28
667.769	9358.36
668.069	10816.52
668.368	10404.88
668.668	9040.93
668.969	9270.3
669.269	10081.3
669.57	9868.31
669.871	9057.31
670.172	9192.48
670.473	10361.87
670.775	10464.27
671.077	9085.98
671.379	9016.35
671.681	10099.73
671.983	10040.34
672.286	8684.58
672.589	8696.87
672.892	9688.09
673.196	9716.76
673.499	8490.03
673.803	8512.55
674.107	9831.44
674.411	9552.92
674.716	8608.81
675.021	8582.18
675.326	9364.51
675.631	9585.69
675.936	8029.23
676.242	8346.67
676.548	8932.39
676.854	9706.52
677.16	7896.11
677.467	8160.3
677.774	8948.77
678.081	8723.49
678.388	8299.56
678.696	8172.59
679.004	9233.44
679.312	9159.71
679.62	7840.82
679.928	7953.46
680.237	8782.88
680.546	8102.96
680.855	7586.87
681.164	7595.06
681.474	8502.31
681.784	8522.79
682.094	7588.92
682.404	7320.63
682.715	8746.02
683.026	7941.17
683.337	7093.31
683.648	7664.69
683.959	8936.48
684.271	8418.35
684.583	7074.88
684.895	6816.83
685.208	8088.62
685.52	8266.8
685.833	7263.29
686.146	6841.41
686.46	8324.14
686.773	7750.71
687.087	6919.23
687.401	6513.74
687.716	7775.28
688.03	7879.73
688.345	6415.43
688.66	6593.61
688.975	7787.57
689.291	7853.11
689.607	7031.87
689.923	6489.16
690.239	7064.64
690.555	7533.62
690.872	6272.07
691.189	5981.26
691.506	7128.13
691.824	7560.25
692.142	5889.1
692.459	6046.8
692.778	6663.24
693.096	7269.44
693.415	6370.38
693.734	5858.39
694.053	6919.23
694.372	6390.86
694.692	5581.91
695.012	5809.23
695.332	6452.3
695.652	6997.06
695.973	5973.07
696.294	5543
696.615	6181.96
696.936	7081.02
697.258	5031.01
697.579	5567.57
697.902	6157.39
698.224	6210.64
698.546	5254.23
698.869	5219.42
699.192	6067.28
699.516	6569.03
699.839	5258.33
700.163	5352.54
700.487	5678.16
700.811	6882.37
701.136	4678.76
701.461	4969.57
701.786	6159.44
702.111	6671.43
702.436	4695.14
702.762	5082.21
703.088	6165.58
703.415	6554.69
703.741	5051.49
704.068	4748.39
704.395	5598.29
704.722	5942.35
705.05	4625.51
705.377	4605.03
705.705	5755.99
706.034	5663.83
706.362	4295.79
706.691	4400.23
707.02	5878.86
707.349	5633.11
707.679	4566.12
708.009	4365.42
708.339	5502.04
708.669	5391.45
709	4238.44
709.33	4146.28
709.661	5301.34
709.993	5256.28
710.324	4381.8
710.656	4097.13
710.988	5188.7
711.321	5479.51
711.653	3892.34
711.986	4131.95
712.319	4543.59
712.652	5209.18
712.986	4301.93
713.32	4263.02
713.654	5385.3
713.988	5491.8
714.323	4023.41
714.658	3845.23
714.993	4834.4
715.328	4697.19
715.664	4041.84
716	4084.84
716.336	5192.8
716.673	4490.34
717.009	3806.32
717.346	3910.77
717.683	5299.29
718.021	4629.6
718.359	3437.69
718.697	3572.85
719.035	4433
719.373	4306.02
719.712	3865.71
720.051	3288.18
720.39	4727.91
720.73	4430.95
721.07	3478.65
721.41	3419.25
721.75	4901.98
722.091	4433
722.432	3296.38
722.773	3626.1
723.114	4119.66
723.456	4150.38
723.798	3122.3
724.14	3198.07
724.482	3933.29
724.825	4111.47
725.168	3370.1
725.511	3114.11
725.855	4037.74
726.198	3771.51
726.542	2800.77
726.887	3454.07
727.231	4351.08
727.576	3658.87
727.921	3042.43
728.266	2854.02
728.612	3851.38
728.958	4060.27
729.304	2890.88
729.651	3337.34
729.997	3771.51
730.344	3798.13
730.691	2667.65
731.039	2878.59
731.387	3878
731.735	3419.25
732.083	2741.38
732.431	2944.13
732.78	3492.98
733.129	2925.69
733.479	2526.34
733.828	2745.47
734.178	3318.9
734.528	3017.85
734.879	2688.13
735.23	2534.53
735.581	3572.85
735.932	3378.3
736.283	2479.24
736.635	2303.11
736.987	3728.5
737.34	3857.52
737.692	2262.15
738.045	2233.48
738.398	3484.79
738.752	3361.91
739.105	2124.94
739.459	2747.52
739.814	3679.35
740.168	3523.7
740.523	2090.12
740.878	2417.8
741.233	3267.7
741.589	3474.55
741.945	2141.32
742.301	2163.85
742.657	3497.08
743.014	2929.79
743.371	1975.44
743.728	2610.31
744.086	3026.04
744.444	2942.08
744.802	1799.31
745.16	2098.31
745.519	3214.46
745.878	2714.75
746.237	1827.98
746.597	2081.93
746.956	3236.99
747.316	2860.16
747.677	1819.79
748.037	2047.12
748.398	2851.97
748.759	3083.39
749.121	2063.5
749.482	2069.64
749.844	2563.2
750.207	2471.04
750.569	1328.28
750.932	2055.31
751.295	3513.46
751.659	2837.63
752.022	1670.29
752.386	2202.76
752.751	2759.81
753.115	2286.73
753.48	1784.98
753.845	1670.29
754.21	2618.5
754.576	2636.93
754.942	1434.77
755.308	1799.31
755.675	2475.14
756.041	2954.37
756.409	1336.47
756.776	1717.39
757.144	3114.11
757.511	2712.71
757.88	1451.16
758.248	1197.21
758.617	1934.48
758.986	2475.14
759.355	1504.4
759.725	1516.69
760.095	2114.7
760.465	2768
760.836	1260.7
761.206	1305.75
761.577	2651.27
761.949	2014.35
762.32	1469.59
762.692	1299.61
763.065	2129.03
763.437	1975.44
763.81	1141.91
764.183	1410.2
764.556	2673.79
764.93	2151.56
765.304	1475.73
765.678	1479.83
766.053	2155.66
766.428	2163.85
766.803	1066.14
767.178	1248.41
767.554	1545.36
767.93	1909.9
768.306	1168.54
768.683	1039.51
769.06	2280.58
769.437	2057.36
769.814	861.34
770.192	1012.89
770.57	1928.33
770.948	2649.22
771.327	1180.82
771.706	797.85
772.085	2141.32
772.464	2464.9
772.844	1162.39
773.224	832.67
773.605	1537.17
773.985	1666.19
774.366	1098.91
774.748	1363.09
775.129	2397.32
775.511	2067.6
775.893	844.96
776.276	1000.6
776.658	2253.96
777.041	1959.05
777.425	627.87
777.808	871.58
778.192	1678.48
778.576	2210.95
778.961	640.16
779.346	947.36
779.731	1819.79
780.116	1262.74
780.502	935.07
780.888	918.68
781.274	1754.26
781.661	1512.6
782.048	615.59
782.435	685.22
782.823	1516.69
783.21	1776.78
783.598	697.5
783.987	820.38
784.376	2051.21
784.765	1295.51
785.154	750.75
785.544	724.13
785.933	1756.3
786.324	1516.69
786.714	992.41
787.105	488.61
787.496	1784.98
787.888	1377.43
788.279	421.03
788.671	560.29
789.064	1526.93
789.456	1682.58
789.849	312.49
790.242	482.47
790.636	1254.55
791.03	1717.39
791.424	486.56
791.818	2057.36
792.213	1721.49
792.608	1479.83
793.004	789.66
793.399	201.9
793.795	1440.92
794.192	1293.46
794.588	496.8
794.985	158.89
795.382	1449.11
795.78	1289.37
796.178	599.2
796.576	418.98
796.974	1934.48
797.373	1381.53
797.772	410.79
798.172	326.82
798.571	1344.66
798.971	1664.15
799.372	361.64
799.772	464.04
800.173	1731.73
800.574	1313.94
800.976	418.98
801.378	79.02
801.78	941.21
802.182	679.07
802.585	435.36
802.988	287.91
803.392	1008.8
803.795	949.4
804.199	144.55
804.604	470.18
805.008	1387.67
805.413	1750.16
805.819	312.49
806.224	212.14
806.63	1238.17
807.036	1291.41
807.443	275.62
807.85	416.93
808.257	1307.8
808.664	1152.15
809.072	658.59
809.48	472.23
809.889	1543.32
810.297	1305.75
810.706	582.82
811.116	115.88
811.526	1117.34
811.936	1000.6
812.346	93.35
812.757	230.57
813.167	1084.57
813.579	904.35
813.99	304.29
814.402	58.54
814.814	1623.19
815.227	851.1
815.64	-162.64
816.053	124.07
816.467	1363.09
816.88	1162.39
817.294	345.25
817.709	363.69
818.124	967.84
818.539	1543.32
818.954	304.29
819.37	300.2
819.786	662.69
820.202	1275.03
820.619	-256.85
821.036	13.48
821.453	1305.75
821.871	982.17
822.289	91.31
822.707	-47.96
823.126	1107.1
823.545	654.5
823.964	21.67
824.384	17.58
824.804	824.48
825.224	1152.15
825.645	283.81
826.065	-103.25
826.487	1287.32
826.908	1270.94
827.33	93.35
827.752	369.83
828.175	1068.19
828.598	1330.33
829.021	298.15
829.444	804
829.868	1041.56
830.292	693.41
830.717	-58.2
831.142	-21.33
831.567	574.63
831.992	863.39
832.418	554.15
832.844	-152.4
833.27	1000.6
833.697	742.56
834.124	-351.06
834.552	-275.28
834.979	1369.24
835.408	1213.59
835.836	-191.31
836.265	21.67
836.694	707.74
837.123	1143.96
837.553	-252.75
837.983	-240.47
838.413	1111.19
838.844	1072.28
839.275	-240.47
839.706	181.42
840.138	1408.15
840.57	582.82
841.003	-78.68
841.435	119.98
841.868	728.22
842.302	689.31
842.735	3.24
843.169	-269.14
843.604	812.19
844.039	877.73
844.474	-244.56
844.909	-193.36
845.345	1016.99
845.781	935.07
846.217	-199.51
846.654	-318.29
847.091	996.51
847.528	617.63
847.966	-279.38
848.404	-121.68
848.842	1432.72
849.281	76.97
849.72	-27.48
850.16	-203.6
850.599	476.32
851.039	556.19
851.48	124.07
851.921	-156.5
852.362	875.68
852.803	1160.34
853.245	-518.99
853.687	-152.4
854.129	1035.42
854.572	453.8
855.015	-432.97
855.459	-312.14
855.903	390.31
856.347	890.01
856.791	-162.64
857.236	-291.66
857.681	1272.98
858.127	1553.55
858.572	132.26
859.019	-265.04
859.465	971.93
859.912	658.59
860.359	-432.97
860.807	-367.44
861.255	394.4
861.703	959.64
862.151	-228.18
862.6	244.9
863.05	830.62
863.499	459.94
863.949	-258.9
864.4	-471.89
864.85	1207.45
865.301	857.25
865.752	-322.38
866.204	-306
866.656	509.09
867.109	1008.8
867.561	-346.96
868.014	-31.57
868.468	994.46
868.921	896.16
869.376	-262.99
869.83	-367.44
870.285	582.82
870.74	287.91
871.195	-215.89
871.651	-156.5
872.107	1191.06
872.564	484.52
873.021	-441.17
873.478	-488.27
873.936	935.07
874.394	857.25
874.852	-326.48
875.31	-195.41
875.769	662.69
876.229	1195.16
876.688	-168.79
877.148	-373.58
877.609	566.43
878.069	427.17
878.531	-19.29
878.992	-502.61
879.454	648.35
879.916	636.06
880.378	-385.87
880.841	-316.24
881.304	27.82
881.768	222.38
882.232	-490.32
882.696	-187.22
883.161	265.38
883.626	623.78
884.091	-256.85
884.557	-342.86
885.023	144.55
885.489	824.48
885.956	-609.1
886.423	-445.26
886.89	99.5
887.358	517.28
887.826	-301.9
888.295	-299.86
888.763	304.29
889.233	1215.64
889.702	-285.52
890.172	-443.21
890.642	455.84
891.113	318.63
891.584	44.2
892.055	-400.21
892.527	734.37
892.999	908.44
893.472	-492.37
893.944	-297.81
894.417	672.93
894.891	238.76
895.365	-285.52
895.839	-219.99
896.314	722.08
896.789	-222.03
897.264	-457.55
897.74	-568.14
898.216	1016.99
898.692	705.7
899.169	-471.89
899.646	-502.61
900.123	609.44
900.601	1131.67
901.079	-490.32
901.558	-244.56
902.037	920.73
902.516	576.67
902.996	-605
903.476	-568.14
903.956	408.74
904.437	738.46
904.918	-527.18
905.399	-584.52
905.881	765.09
906.363	703.65
906.846	-596.81
907.329	-359.25
907.812	122.02
908.296	648.35
908.78	-596.81
909.264	-588.62
909.749	312.49
910.234	826.53
910.719	-654.16
911.205	-228.18
911.691	54.44
912.178	568.48
912.665	1.19
913.152	-426.83
913.64	310.44
914.128	787.61
914.616	-449.36
915.105	-449.36
915.594	607.39
916.084	1033.37
916.574	-318.29
917.064	-621.39
917.555	33.96
918.046	677.02
918.537	1.19
919.029	-858.95
919.521	230.57
920.013	1029.27
920.506	-334.67
920.999	-564.04
921.493	750.75
921.987	328.87
922.481	-252.75
922.976	-475.98
923.471	451.75
923.967	631.97
924.462	-369.49
924.959	-338.77
925.455	543.91
925.952	435.36
926.449	-605
926.947	-490.32
927.445	498.85
927.944	418.98
928.442	-744.27
928.942	-674.64
929.441	771.23
929.941	205.99
930.442	-508.75
930.942	-529.23
931.443	812.19
931.945	-19.29
932.447	-617.29
932.949	-514.89
933.451	314.53
933.954	355.49
934.458	-316.24
934.961	-568.14
935.465	226.47
935.97	148.65
936.475	-367.44
936.98	-588.62
937.486	-136.02
937.992	124.07
938.498	-512.85
939.005	-510.8
939.512	167.08
940.019	523.43
940.527	-396.11
941.035	-260.95
941.544	627.87
942.053	418.98
942.562	-195.41
943.072	-179.03
943.582	806.05
944.093	306.34
944.604	-584.52
945.115	-578.38
945.627	797.85
946.139	896.16
946.651	-535.37
947.164	-265.04
947.677	539.81
948.191	535.71
948.705	-605
949.219	-625.48
949.734	226.47
950.249	693.41
950.765	-471.89
951.281	-578.38
951.797	1496.21
952.314	806.05
952.831	-539.47
953.348	-789.32
953.866	691.36
954.384	316.58
954.903	-490.32
955.422	-613.2
955.941	306.34
956.461	439.46
956.981	-623.44
957.502	-375.63
958.023	554.15
958.544	552.1
959.066	-457.55
959.588	-734.03
960.11	115.88
960.633	806.05
961.156	-463.69
961.68	-537.42
962.204	824.48
962.729	97.45
963.253	-539.47
963.779	-45.91
964.304	582.82
964.83	871.58
965.357	-662.35
965.883	-404.3
966.411	427.17
966.938	705.7
967.466	-496.46
967.994	-777.03
968.523	259.24
969.052	937.12
969.582	-547.66
970.112	-609.1
970.642	87.21
971.173	789.66
971.704	-674.64
972.235	-406.35
972.767	707.74
973.3	292.01
973.832	-365.39
974.365	-738.12
974.899	459.94
975.433	562.34
975.967	-748.36
976.502	-334.67
977.037	502.95
977.572	857.25
978.108	-562
978.644	-740.17
979.181	1172.63
979.718	697.5
980.255	-953.16
980.793	-424.78
981.331	-205.65
981.87	728.22
982.409	-484.17
982.948	-318.29
983.488	361.64
984.028	865.44
984.569	-467.79
985.11	-514.89
985.651	758.94
986.193	482.47
986.735	-766.79
987.278	-625.48
987.821	-97.11
988.364	400.55
988.908	-369.49
989.452	-748.36
989.997	-400.21
990.542	597.15
991.088	-617.29
991.633	-222.03
992.18	283.81
992.726	-125.78
993.273	-490.32
993.821	-332.62
994.369	369.83
994.917	787.61
995.465	-658.25
996.014	-830.28
996.564	666.78
997.114	222.38
997.664	-262.99
998.215	-756.55
998.766	504.99
999.317	-74.58
999.869	-508.75
1000.421	-844.62
1000.974	556.19
1001.527	648.35
1002.081	-623.44
1002.635	-136.02
1003.189	425.12
1003.744	697.5
1004.299	-744.27
1004.854	-584.52
1005.41	877.73
1005.967	185.51
1006.523	-496.46
1007.081	-441.17
1007.638	423.08
1008.196	535.71
1008.755	-629.58
1009.313	-387.92
1009.873	599.2
1010.432	-66.39
1010.992	-342.86
1011.553	-404.3
1012.114	431.27
1012.675	11.43
1013.237	-406.35
1013.799	-242.51
1014.361	586.91
1014.924	-119.64
1015.487	-748.36
1016.051	-504.65
1016.615	662.69
1017.18	468.13
1017.745	-713.55
1018.31	-215.89
1018.876	857.25
1019.442	382.12
1020.009	-504.65
1020.576	-834.38
1021.143	369.83
1021.711	613.54
1022.28	-562
1022.848	-654.16
1023.417	808.09
1023.987	259.24
1024.557	-623.44
1025.127	-602.96
1025.698	-113.49
1026.269	93.35
1026.841	-682.83
1027.413	-457.55
1027.985	148.65
1028.558	281.77
1029.131	-693.07
1029.705	-432.97
1030.279	464.04
1030.854	504.99
1031.429	-643.92
1032.004	-125.78
1032.58	703.65
1033.156	-13.14
1033.733	-709.45
1034.31	-682.83
1034.887	603.3
1035.465	699.55
1036.043	-916.3
1036.622	-496.46
1037.201	265.38
1037.781	654.5
1038.361	-725.83
1038.941	-736.07
1039.522	392.36
1040.103	814.24
1040.685	-693.07
1041.267	-244.56
1041.85	1141.91
1042.433	666.78
1043.016	-641.87
1043.6	-523.09
1044.184	-201.55
1044.769	599.2
1045.354	-402.26
1045.939	-723.79
1046.525	347.3
1047.111	502.95
1047.698	-449.36
1048.285	-799.56
1048.873	504.99
1049.461	-62.29
1050.049	-654.16
1050.638	-652.11
1051.228	19.63
1051.817	752.8
1052.407	-674.64
1052.998	-342.86
1053.589	439.46
1054.18	711.84
1054.772	-916.3
1055.365	-666.44
1055.957	496.8
1056.55	261.29
1057.144	-473.93
1057.738	-621.39
1058.333	201.9
1058.927	124.07
1059.523	-523.09
1060.118	-684.87
1060.715	156.84
1061.311	613.54
1061.908	-713.55
1062.506	-449.36
1063.103	617.63
1063.702	40.11
1064.3	-963.4
1064.9	-707.4
1065.499	953.5
1066.099	42.15
1066.7	-670.54
1067.301	-791.37
1067.902	816.29
1068.504	742.56
1069.106	-361.3
1069.709	-328.53
1070.312	775.33
1070.915	513.19
1071.519	-666.44
1072.123	-400.21
1072.728	591.01
1073.333	357.54
1073.939	-265.04
1074.545	-533.33
1075.152	515.23
1075.759	154.79
1076.366	-719.69
1076.974	-314.19
1077.582	279.72
1078.191	631.97
1078.8	-420.69
1079.41	-879.43
1080.02	195.75
1080.63	339.11
1081.241	-213.84
1081.852	-889.67
1082.464	435.36
1083.076	373.92
1083.689	-664.4
1084.302	-682.83
1084.915	801.95
1085.529	566.43
1086.144	-629.58
1086.759	-512.85
1087.374	148.65
1087.99	324.77
1088.606	-711.5
1089.222	-576.33
1089.839	564.39
1090.457	273.57
1091.075	-521.04
1091.693	-916.3
1092.312	459.94
1092.931	861.34
1093.551	-666.44
1094.171	-265.04
1094.792	373.92
1095.413	179.37
1096.034	-523.09
1096.656	-605
1097.278	601.25
1097.901	328.87
1098.524	-678.73
1099.148	-396.11
1099.772	902.3
1100.397	373.92
1101.022	-760.65
1101.647	-607.05
1102.273	453.8
1102.899	724.13
1103.526	-953.16
1104.153	-414.54
1104.781	609.44
1105.409	838.81
1106.038	-731.98
1106.667	-824.14
1107.296	193.7
1107.926	210.09
1108.556	-197.46
1109.187	-578.38
1109.818	361.64
1110.45	613.54
1111.082	-555.85
1111.715	-562
1112.348	441.51
1112.981	230.57
1113.615	-303.95
1114.25	-564.04
1114.885	99.5
1115.52	232.62
1116.156	-817.99
1116.792	-592.72
1117.428	588.96
1118.066	101.55
1118.703	-404.3
1119.341	-586.57
1119.98	697.5
1120.618	804
1121.258	-781.13
1121.898	-725.83
1122.538	496.8
1123.179	-142.16
1123.82	-498.51
1124.461	-447.31
1125.103	634.02
1125.746	83.11
1126.389	-387.92
1127.032	-770.89
1127.676	455.84
1128.32	877.73
1128.965	-432.97
1129.61	-400.21
1130.256	119.98
1130.902	722.08
1131.549	-574.28
1132.196	-627.53
1132.844	754.85
1133.491	752.8
1134.14	-529.23
1134.789	-592.72
1135.438	1062.04
1136.088	193.7
1136.738	-717.64
1137.389	-826.18
1138.04	574.63
1138.692	928.92
1139.344	-742.22
1139.996	-656.2
1140.649	492.71
1141.303	509.09
1141.957	-557.9
1142.611	-590.67
1143.266	382.12
1143.921	375.97
1144.577	-580.43
1145.233	-533.33
1145.89	150.7
1146.547	586.91
1147.205	-834.38
1147.863	-566.09
1148.521	451.75
1149.18	656.54
1149.84	-695.11
1150.5	-695.11
1151.16	279.72
1151.821	683.17
1152.482	-562
1153.144	-117.59
1153.806	357.54
1154.469	599.2
1155.132	-756.55
1155.796	-521.04
1156.46	627.87
1157.124	885.92
1157.789	-762.7
1158.455	-822.09
1159.121	445.6
1159.787	17.58
1160.454	-510.8
1161.121	-471.89
1161.789	261.29
1162.457	683.17
1163.126	-437.07
1163.795	-527.18
1164.465	361.64
1165.135	171.18
1165.806	-465.74
1166.477	-420.69
1167.148	-283.47
1167.82	453.8
1168.493	-863.05
1169.166	-447.31
1169.839	7.34
1170.513	308.39
1171.187	-709.45
1171.862	-617.29
1172.537	238.76
1173.213	447.65
1173.889	-713.55
1174.566	-678.73
1175.243	715.94
1175.921	314.53
1176.599	-480.08
1177.278	-432.97
1177.957	76.97
1178.636	740.51
1179.316	-375.63
1179.997	-832.33
1180.678	486.56
1181.359	722.08
1182.041	-695.11
1182.723	-774.99
1183.406	685.22
1184.089	130.22
1184.773	-678.73
1185.457	-783.18
1186.142	296.1
1186.827	1328.28
1187.513	-731.98
1188.199	-152.4
1188.886	158.89
1189.573	373.92
1190.26	-555.85
1190.948	-572.24
1191.637	62.63
1192.326	287.91
1193.015	-752.46
1193.705	-779.08
1194.396	138.41
1195.087	289.96
1195.778	-432.97
1196.47	-686.92
1197.162	326.82
1197.855	582.82
1198.548	-693.07
1199.242	-928.58
1199.936	560.29
1200.631	644.26
1201.326	-832.33
1202.022	-668.49
1202.718	705.7
1203.415	470.18
1204.112	-883.53
1204.81	-551.76
1205.508	158.89
1206.206	1008.8
1206.905	-641.87
1207.605	-756.55
1208.305	259.24
1209.005	468.13
1209.706	-768.84
1210.408	-699.21
1211.11	382.12
1211.812	451.75
1212.515	-588.62
1213.218	-582.48
1213.922	373.92
1214.627	275.62
1215.331	-543.57
1216.037	-627.53
1216.743	21.67
1217.449	378.02
1218.156	-486.22
1218.863	-414.54
1219.571	150.7
1220.279	789.66
1220.988	-748.36
1221.697	-590.67
1222.406	580.77
1223.117	183.46
1223.827	-527.18
1224.538	-660.3
1225.25	222.38
1225.962	457.89
1226.675	-928.58
1227.388	-463.69
1228.101	185.51
1228.815	132.26
1229.53	-555.85
1230.245	-502.61
1230.961	435.36
1231.677	304.29
1232.393	-600.91
1233.11	-557.9
1233.828	996.51
1234.546	402.6
1235.264	-559.95
1235.983	-324.43
1236.702	1082.52
1237.422	353.45
1238.143	-306
1238.864	-709.45
1239.585	715.94
1240.307	-195.41
1241.029	-856.9
1241.752	-314.19
1242.476	574.63
1243.2	752.8
1243.924	-426.83
1244.649	-625.48
1245.374	631.97
1246.1	834.72
1246.826	-834.38
1247.553	-566.09
1248.28	414.88
1249.008	582.82
1249.737	-723.79
1250.465	-439.12
1251.195	486.56
1251.925	738.46
1252.655	-652.11
1253.386	-381.78
1254.117	337.06
1254.849	197.8
1255.581	-650.06
1256.314	-480.08
1257.047	771.23
1257.781	533.67
1258.515	-695.11
1259.25	-219.99
1259.985	285.86
1260.721	359.59
1261.457	-478.03
1262.194	-893.77
1262.931	199.85
1263.669	693.41
1264.407	-498.51
1265.146	-781.13
1265.885	371.88
1266.625	308.39
1267.365	-531.28
1268.106	-678.73
1268.847	324.77
1269.589	224.42
1270.331	-441.17
1271.074	-514.89
1271.817	402.6
1272.561	488.61
1273.305	-371.54
1274.05	-447.31
1274.795	406.69
1275.541	339.11
1276.287	-832.33
1277.034	-774.99
1277.781	64.68
1278.529	599.2
1279.277	-904.01
1280.026	-815.94
1280.775	736.42
1281.525	-498.51
1282.275	-914.25
1283.026	-215.89
1283.777	388.26
1284.529	459.94
1285.281	-641.87
1286.034	-940.87
1286.788	830.62
1287.541	300.2
1288.296	-867.14
1289.051	-437.07
1289.806	423.08
1290.562	533.67
1291.318	-750.41
1292.075	-582.48
1292.832	677.02
1293.59	767.13
1294.349	-613.2
1295.108	-639.82
1295.867	1021.08
1296.627	615.59
1297.387	-721.74
1298.148	-447.31
1298.91	304.29
1299.672	-13.14
1300.434	-670.54
1301.197	-842.57
1301.961	1369.24
1302.725	275.62
1303.489	-404.3
1304.254	-559.95
1305.02	439.46
1305.786	771.23
1306.552	-965.45
1307.319	-867.14
1308.087	804
1308.855	844.96
1309.624	-648.01
1310.393	-516.94
1311.162	-211.79
1311.933	597.15
1312.703	-564.04
1313.474	-357.2
1314.246	310.44
1315.018	648.35
1315.791	-203.6
1316.564	-830.28
1317.338	619.68
1318.112	314.53
1318.887	-781.13
1319.662	-512.85
1320.438	371.88
1321.214	126.12
1321.991	-437.07
1322.769	-662.35
1323.546	441.51
1324.325	27.82
1325.104	-748.36
1325.883	-512.85
1326.663	-109.4
1327.444	461.99
1328.224	-639.82
1329.006	-518.99
1329.788	361.64
1330.571	394.4
1331.354	-306
1332.137	-805.71
1332.921	765.09
1333.706	-146.26
1334.491	-473.93
1335.277	-445.26
1336.063	95.4
1336.849	124.07
1337.637	-760.65
1338.424	-639.82
1339.213	943.26
1340.001	828.57
1340.791	-768.84
1341.581	-346.96
1342.371	533.67
1343.162	257.19
1343.953	-617.29
1344.745	-504.65
1345.537	468.13
1346.33	525.47
1347.124	-615.24
1347.918	-308.05
1348.712	939.16
1349.507	509.09
1350.303	-588.62
1351.099	-463.69
1351.896	3.24
1352.693	-179.03
1353.49	-576.33
1354.289	-592.72
1355.087	601.25
1355.887	734.37
1356.686	-535.37
1357.487	-645.96
1358.288	99.5
1359.089	263.33
1359.891	-260.95
1360.693	-584.52
1361.496	-144.21
1362.3	298.15
1363.104	-660.3
1363.908	-645.96
1364.713	918.68
1365.519	828.57
1366.325	-633.68
1367.131	-891.72
1367.939	279.72
1368.746	992.41
1369.555	-1006.41
1370.363	-539.47
1371.173	818.33
1371.982	1272.98
1372.793	-701.26
1373.604	-889.67
1374.415	591.01
1375.227	818.33
1376.039	-795.47
1376.852	-672.59
1377.666	1027.23
1378.48	437.41
1379.295	-703.31
1380.11	-834.38
1380.925	29.87
1381.742	959.64
1382.558	-588.62
1383.376	-568.14
1384.193	382.12
1385.012	205.99
1385.831	-744.27
1386.65	-562
1387.47	142.5
1388.29	136.36
1389.111	-570.19
1389.933	-777.03
1390.755	773.28
1391.578	308.39
1392.401	-908.1
1393.225	-645.96
1394.049	857.25
1394.873	265.38
1395.699	-707.4
1396.525	-490.32
1397.351	707.74
1398.178	62.63
1399.005	-465.74
1399.833	-1055.56
1400.662	550.05
1401.491	967.84
1402.321	-693.07
1403.151	-615.24
1403.981	441.51
1404.813	593.06
1405.644	-400.21
1406.477	-809.8
1407.309	316.58
1408.143	1016.99
1408.977	-627.53
1409.811	-668.49
1410.646	849.05
1411.482	689.31
1412.318	-457.55
1413.155	-648.01
1413.992	617.63
1414.829	27.82
1415.668	-594.76
1416.506	-398.16
1417.346	672.93
1418.186	371.88
1419.026	-686.92
1419.867	-848.71
1420.709	660.64
1421.551	591.01
1422.393	-899.91
1423.236	-543.57
1424.08	361.64
1424.924	337.06
1425.769	-695.11
1426.614	-668.49
1427.46	488.61
1428.307	226.47
1429.154	-777.03
1430.001	-777.03
1430.849	394.4
1431.698	214.18
1432.547	-899.91
1433.397	-908.1
1434.247	648.35
1435.098	947.36
1435.949	-586.57
1436.801	-645.96
1437.653	101.55
1438.506	668.83
1439.36	-899.91
1440.214	-774.99
1441.069	642.21
1441.924	320.68
1442.78	-633.68
1443.636	-838.47
1444.493	296.1
1445.35	447.65
1446.208	-437.07
1447.067	-793.42
1447.926	435.36
1448.785	820.38
1449.645	-572.24
1450.506	-691.02
1451.367	308.39
1452.229	87.21
1453.091	-793.42
1453.954	-369.49
1454.818	244.9
1455.682	427.17
1456.546	-609.1
1457.412	-834.38
1458.277	715.94
1459.143	408.74
1460.01	-447.31
1460.878	-758.6
1461.745	418.98
1462.614	205.99
1463.483	-879.43
1464.352	-400.21
1465.223	746.66
1466.093	660.64
1466.964	-826.18
1467.836	-815.94
1468.709	748.7
1469.581	314.53
1470.455	-498.51
1471.329	-703.31
1472.203	-2.9
1473.079	152.74
1473.954	-334.67
1474.831	-768.84
1475.707	126.12
1476.585	101.55
1477.463	-695.11
1478.341	-596.81
1479.22	-7
1480.1	474.28
1480.98	-940.87
1481.861	-791.37
1482.742	582.82
1483.624	672.93
1484.506	-539.47
1485.389	-629.58
1486.273	197.8
1487.157	265.38
1488.041	-725.83
1488.926	-899.91
1489.812	511.14
1490.699	361.64
1491.585	-645.96
1492.473	-611.15
1493.361	-156.5
1494.249	337.06
1495.139	-539.47
1496.028	-590.67
1496.919	-82.77
1497.809	591.01
1498.701	-709.45
1499.593	-654.16
1500.485	337.06
1501.378	734.37
1502.272	-285.52
1503.166	-648.01
1504.061	806.05
1504.956	443.56
1505.852	-637.77
1506.749	-809.8
1507.646	543.91
1508.543	341.16
1509.442	-856.9
1510.34	-72.53
1511.24	971.93
1512.14	300.2
1513.04	-670.54
1513.941	-914.25
1514.843	1225.88
1515.745	-76.63
1516.648	-648.01
1517.551	-869.19
1518.455	-201.55
1519.359	-215.89
1520.264	-789.32
1521.17	-783.18
1522.076	222.38
1522.983	492.71
1523.89	-836.42
1524.798	-439.12
1525.706	365.73
1526.615	1399.96
1527.525	-858.95
1528.435	-643.92
1529.346	558.24
1530.257	189.61
1531.169	-463.69
1532.081	-701.26
1532.994	1004.7
1533.908	216.23
1534.822	-740.17
1535.737	-695.11
1536.652	355.49
1537.568	320.68
1538.484	-574.28
1539.401	-922.44
1540.319	879.77
1541.237	-45.91
1542.156	-691.02
1543.075	-658.25
1543.995	967.84
1544.916	1051.8
1545.837	-777.03
1546.758	-813.9
1547.68	697.5
1548.603	697.5
1549.527	-555.85
1550.451	-772.94
1551.375	550.05
1552.3	765.09
1553.226	-912.2
1554.152	-797.51
1555.079	832.67
1556.006	345.25
1556.934	-463.69
1557.863	-574.28
1558.792	930.97
1559.722	68.78
1560.652	-496.46
1561.583	-910.15
1562.514	-15.19
1563.446	140.46
1564.379	-992.07
1565.312	-473.93
1566.246	720.03
1567.18	343.21
1568.115	-607.05
1569.051	-756.55
1569.987	767.13
1570.924	1029.27
1571.861	-928.58
1572.799	-506.7
1573.737	646.3
1574.676	365.73
1575.616	-400.21
1576.556	-701.26
1577.497	40.11
1578.438	103.59
1579.38	-691.02
1580.323	-576.33
1581.266	464.04
1582.21	769.18
1583.154	-750.41
1584.099	-834.38
1585.044	513.19
1585.99	742.56
1586.937	-410.45
1587.884	-602.96
1588.832	289.96
1589.78	887.97
1590.729	-752.46
1591.679	-432.97
1592.629	337.06
1593.58	509.09
1594.531	-514.89
1595.483	-465.74
1596.435	259.24
1597.388	132.26
1598.342	-361.3
1599.296	-502.61
1600.251	550.05
1601.207	744.61
1602.163	-572.24
1603.119	-686.92
1604.077	844.96
1605.034	804
1605.993	-437.07
1606.952	13.48
1607.911	396.45
1608.872	378.02
1609.832	-801.61
1610.794	-861
1611.756	681.12
1612.718	576.67
1613.681	-326.48
1614.645	-684.87
1615.609	734.37
1616.574	308.39
1617.54	-162.64
1618.506	-574.28
1619.472	715.94
1620.44	677.02
1621.408	-29.52
1622.376	-535.37
1623.345	345.25
1624.315	746.66
1625.285	-539.47
1626.256	-557.9
1627.227	464.04
1628.199	-13.14
1629.172	-430.93
1630.145	-432.97
1631.119	464.04
1632.094	1041.56
1633.069	-617.29
1634.044	-453.45
1635.02	251.05
1635.997	662.69
1636.975	-633.68
1637.953	-777.03
1638.931	953.5
1639.911	38.06
1640.89	-760.65
1641.871	-596.81
1642.852	545.95
1643.833	560.29
1644.816	-781.13
1645.798	-883.53
1646.782	988.32
1647.766	103.59
1648.75	-670.54
1649.736	-635.72
1650.721	-39.76
1651.708	414.88
1652.695	-572.24
1653.682	-482.13
1654.671	418.98
1655.66	517.28
1656.649	-637.77
1657.639	-658.25
1658.63	-31.57
1659.621	308.39
1660.613	-904.01
1661.605	-846.66
1662.598	240.81
1663.592	177.32
1664.586	-936.78
1665.581	-869.19
1666.576	171.18
1667.572	394.4
1668.569	-633.68
1669.566	-768.84
1670.564	568.48
1671.563	849.05
1672.562	-684.87
1673.562	-316.24
1674.562	423.08
1675.563	517.28
1676.564	-430.93
1677.566	-605
1678.569	955.55
1679.572	-363.34
1680.576	-619.34
1681.581	-734.03
1682.586	285.86
1683.592	402.6
1684.598	-596.81
1685.605	-478.03
1686.613	683.17
1687.621	312.49
1688.63	-521.04
1689.639	-416.59
1690.649	175.27
1691.66	330.92
1692.671	-529.23
1693.683	-756.55
1694.696	97.45
1695.709	476.32
1696.722	-707.4
1697.737	-535.37
1698.752	134.31
1699.767	410.79
1700.783	-586.57
1701.8	-478.03
1702.818	382.12
1703.836	-31.57
1704.854	-854.86
1705.873	-586.57
1706.893	273.57
1707.914	300.2
1708.935	-686.92
1709.956	-602.96
1710.979	320.68
1712.002	416.93
1713.025	-625.48
1714.049	-543.57
1715.074	511.14
1716.099	627.87
1717.125	-668.49
1718.152	-813.9
1719.179	113.83
1720.207	656.54
1721.235	46.25
1722.265	-187.22
1723.294	318.63
1724.325	195.75
1725.355	-414.54
1726.387	-492.37
1727.419	320.68
1728.452	652.45
1729.485	-447.31
1730.519	-711.5
1731.554	-13.14
1732.589	410.79
1733.625	-707.4
1734.662	-621.39
1735.699	-60.24
1736.736	713.89
1737.775	-731.98
1738.814	-596.81
1739.853	156.84
1740.894	128.17
1741.934	-457.55
1742.976	-682.83
1744.018	636.06
1745.061	259.24
1746.104	-742.22
1747.148	-693.07
1748.193	310.44
1749.238	263.33
1750.284	-551.76
1751.33	-811.85
1752.377	373.92
1753.425	1031.32
1754.473	-637.77
1755.522	-512.85
1756.572	836.77
1757.622	574.63
1758.673	-727.88
1759.724	-570.19
1760.776	763.04
1761.829	771.23
1762.882	-367.44
1763.936	-768.84
1764.991	169.13
1766.046	1059.99
1767.102	-555.85
1768.158	-793.42
1769.215	539.81
1770.273	552.1
1771.331	-467.79
1772.39	-717.64
1773.45	423.08
1774.51	617.63
1775.571	-830.28
1776.632	-101.2
1777.694	292.01
1778.757	605.35
1779.82	-406.35
1780.884	-525.13
1781.949	181.42
1783.014	492.71
1784.08	-850.76
1785.147	-629.58
1786.214	146.6
1787.282	68.78
1788.35	-449.36
1789.419	-463.69
1790.489	662.69
1791.559	345.25
1792.63	-682.83
1793.702	-392.02
1794.774	271.53
1795.847	586.91
1796.92	-299.86
1797.994	-652.11
1799.069	517.28
1800.144	1115.29
1801.22	-627.53
1802.297	-473.93
1803.374	-29.52
1804.452	431.27
1805.531	-695.11
1806.61	-408.4
1807.69	599.2
1808.77	-9.05
1809.851	-469.84
1810.933	-910.15
1812.015	687.26
1813.098	68.78
1814.182	-572.24
1815.266	-576.33
1816.351	308.39
1817.437	310.44
1818.523	-570.19
1819.61	-535.37
1820.697	316.58
1821.785	1086.62
1822.874	-500.56
1823.963	-709.45
1825.053	306.34
1826.144	543.91
1827.235	-629.58
1828.327	-605
1829.42	443.56
1830.513	-60.24
1831.607	-764.75
1832.701	-613.2
1833.796	312.49
1834.892	738.46
1835.989	-752.46
1837.086	-697.16
1838.183	394.4
1839.282	330.92
1840.381	-641.87
1841.48	-582.48
1842.581	423.08
1843.682	879.77
1844.783	-273.23
1845.885	-400.21
1846.988	687.26
1848.092	504.99
1849.196	-500.56
1850.301	-408.4
1851.406	-29.52
1852.512	961.69
1853.619	-582.48
1854.726	-693.07
1855.834	156.84
1856.943	701.6
1858.052	-662.35
1859.162	-502.61
1860.273	427.17
1861.384	765.09
1862.496	-602.96
1863.608	-656.2
1864.721	406.69
1865.835	93.35
1866.95	-736.07
1868.065	-650.06
1869.181	304.29
1870.297	642.21
1871.414	-465.74
1872.532	-844.62
1873.65	269.48
1874.769	255.14
1875.889	-719.69
1877.009	-228.18
1878.13	576.67
1879.252	853.15
1880.374	-502.61
1881.497	-668.49
1882.62	341.16
1883.745	160.94
1884.87	-856.9
1885.995	-801.61
1887.121	238.76
1888.248	74.92
1889.376	-781.13
1890.504	-711.5
1891.632	388.26
1892.762	210.09
1893.892	-641.87
1895.023	-385.87
1896.154	62.63
1897.286	279.72
1898.419	-760.65
1899.552	-559.95
1900.686	597.15
1901.821	527.52
1902.956	-650.06
1904.092	-541.52
1905.229	812.19
1906.366	533.67
1907.504	-633.68
1908.643	-688.97
1909.782	494.76
