Data from led6500K_USB4H112691__7__12-41-08-173.txt Node

Date: Tue Dec 17 12:41:08 CET 2024
User: Etudiants TP
Spectrometer: USB4H11269
Trigger mode: 4
Integration Time (sec): 1.000000E0
Scans to average: 1
Electric dark correction enabled: true
Nonlinearity correction enabled: false
Boxcar width: 0
XAxis mode: Wavelengths
Number of Pixels in Spectrum: 3648
>>>>>Begin Spectral Data<<<<<
286.377	-1647.93
286.631	-1647.93
286.884	-1647.93
287.138	-1643.84
287.391	-1670.46
287.644	-875.85
287.896	-582.99
288.149	729.76
288.401	514.72
288.653	-591.18
288.905	-462.16
289.157	901.79
289.409	326.31
289.661	-427.34
289.912	-812.36
290.163	494.24
290.414	785.05
290.665	-732.49
290.916	-574.8
291.166	543.39
291.417	1049.24
291.667	-597.32
291.917	-230.74
292.167	506.53
292.417	473.76
292.666	-769.35
292.916	-609.61
293.165	541.35
293.414	701.09
293.663	-933.19
293.912	-738.63
294.16	737.95
294.408	854.69
294.657	-728.39
294.905	-402.77
295.153	602.79
295.4	596.64
295.648	-849.22
295.895	-738.63
296.143	125.61
296.39	866.97
296.637	-652.62
296.884	-630.09
297.13	572.07
297.377	836.25
297.623	-542.03
297.869	-333.14
298.115	729.76
298.361	662.18
298.606	-791.88
298.852	-671.05
299.097	670.37
299.342	1053.34
299.587	-372.05
299.832	-574.8
300.077	742.05
300.322	649.89
300.566	-779.59
300.81	-509.26
301.054	647.84
301.298	805.53
301.542	-206.16
301.785	-443.73
302.029	940.7
302.272	787.1
302.515	-763.21
302.758	-496.97
303.001	858.78
303.244	801.44
303.486	-566.6
303.729	-890.18
303.971	957.08
304.213	795.29
304.455	-853.32
304.696	-296.27
304.938	418.47
305.179	772.77
305.421	-458.06
305.662	-400.72
305.903	477.86
306.143	367.27
306.384	-400.72
306.625	-474.45
306.865	420.52
307.105	252.58
307.345	-449.87
307.585	-529.74
307.825	76.46
308.064	742.05
308.304	-664.91
308.543	-857.42
308.782	535.2
309.021	924.32
309.26	-421.2
309.499	-619.85
309.737	936.6
309.976	744.1
310.214	-707.91
310.452	-640.33
310.69	1149.59
310.928	258.73
311.165	-666.96
311.403	-664.91
311.64	885.41
311.878	694.94
312.115	-537.93
312.351	-525.65
312.588	502.44
312.825	1028.76
313.061	-824.65
313.298	146.09
313.534	346.79
313.77	848.54
314.006	-603.47
314.241	-666.96
314.477	819.87
314.713	1182.36
314.948	-496.97
315.183	162.47
315.418	998.04
315.653	567.97
315.888	-660.81
316.122	-415.05
316.357	486.05
316.591	776.86
316.825	-525.65
317.059	-578.89
317.293	1071.77
317.527	408.23
317.76	-705.87
317.994	-494.93
318.227	729.76
318.46	1170.07
318.693	-718.15
318.926	-410.96
319.159	213.67
319.391	592.55
319.624	-767.31
319.856	-570.7
320.088	834.21
320.321	705.18
320.552	-277.84
320.784	-636.24
321.016	785.05
321.247	74.41
321.479	-390.48
321.71	-329.04
321.941	-79.19
322.172	1208.98
322.403	-681.29
322.633	-376.14
322.864	817.82
323.094	201.38
323.325	-91.48
323.555	-685.39
323.785	201.38
324.014	369.32
324.244	-460.11
324.474	-357.71
324.703	891.55
324.933	830.11
325.162	-341.33
325.391	-834.89
325.62	-23.89
325.848	830.11
326.077	-615.76
326.306	-398.67
326.534	744.1
326.762	1047.19
326.99	-574.8
327.218	-257.36
327.446	797.34
327.674	55.98
327.901	-623.95
328.129	-675.15
328.356	740
328.583	193.19
328.81	-707.91
329.037	-410.96
329.264	481.96
329.491	914.08
329.717	-515.41
329.944	-630.09
330.17	441
330.396	174.76
330.622	-660.81
330.848	-329.04
331.074	481.96
331.299	1395.35
331.525	-693.58
331.75	-617.8
331.975	948.89
332.201	279.21
332.426	-867.66
332.65	-650.57
332.875	-132.44
333.1	424.61
333.324	-714.06
333.549	-656.72
333.773	338.6
333.997	574.11
334.221	-677.19
334.445	-632.14
334.668	625.31
334.892	987.8
335.116	-421.2
335.339	-550.22
335.562	25.26
335.785	445.09
336.008	-288.08
336.231	-572.75
336.454	-99.67
336.676	928.41
336.899	-460.11
337.121	-298.32
337.343	15.02
337.566	598.69
337.788	-499.02
338.009	-714.06
338.231	129.7
338.453	457.38
338.674	3330.68
338.896	-419.15
339.117	88.75
339.338	1104.54
339.559	-734.54
339.78	-535.89
340.001	76.46
340.222	924.32
340.442	-548.17
340.663	-296.27
340.883	770.72
341.103	469.67
341.323	-589.13
341.543	-363.86
341.763	780.96
341.983	295.59
342.202	-640.33
342.422	-728.39
342.641	1141.4
342.861	473.76
343.08	-236.88
343.299	-742.73
343.518	664.22
343.736	600.74
343.955	-550.22
344.174	-722.25
344.392	785.05
344.61	121.51
344.829	-742.73
345.047	-578.89
345.265	694.94
345.483	826.01
345.7	-652.62
345.918	-224.59
346.136	137.9
346.353	846.49
346.57	-660.81
346.788	-746.83
347.005	389.8
347.222	-15.7
347.438	17.07
347.655	-623.95
347.872	137.9
348.088	1022.62
348.305	-345.42
348.521	-640.33
348.737	170.66
348.953	944.8
349.169	-222.55
349.385	-480.59
349.601	531.11
349.817	8.87
350.032	-173.39
350.248	-253.27
350.463	1190.55
350.678	-249.17
350.893	-609.61
351.108	-746.83
351.323	203.43
351.538	887.45
351.753	-689.48
351.967	-599.37
352.182	916.12
352.396	264.87
352.61	-730.44
352.824	-566.6
353.038	686.75
353.252	844.45
353.466	-529.74
353.68	-611.66
353.894	461.48
354.107	107.18
354.32	-374.1
354.534	-695.63
354.747	729.76
354.96	-103.76
355.173	-386.38
355.386	-822.6
355.599	490.15
355.811	180.9
356.024	-763.21
356.236	-505.17
356.449	303.78
356.661	434.85
356.873	-687.43
357.085	-910.66
357.297	613.03
357.509	633.51
357.721	-591.18
357.933	-558.41
358.144	266.92
358.356	285.35
358.567	-357.71
358.778	-750.92
358.989	924.32
359.2	170.66
359.411	-568.65
359.622	-451.92
359.833	584.35
360.044	363.17
360.254	-578.89
360.465	-744.78
360.675	565.92
360.885	447.14
361.096	-771.4
361.306	-570.7
361.516	285.35
361.726	522.91
361.935	-869.7
362.145	-636.24
362.355	588.45
362.564	490.15
362.774	-689.48
362.983	-802.12
363.192	965.28
363.401	211.62
363.61	-654.67
363.819	-316.75
364.028	475.81
364.237	924.32
364.445	-595.28
364.654	-415.05
364.862	459.43
365.071	191.14
365.279	-460.11
365.487	-599.37
365.695	567.97
365.903	473.76
366.111	-752.97
366.319	-556.36
366.527	645.79
366.734	377.51
366.942	-460.11
367.149	-705.87
367.357	-482.64
367.564	1041.05
367.771	-492.88
367.978	-644.43
368.185	121.51
368.392	363.17
368.599	-382.29
368.806	-566.6
369.013	-32.08
369.219	553.63
369.426	-832.84
369.632	-210.26
369.838	1184.41
370.044	598.69
370.251	-558.41
370.457	-480.59
370.663	918.17
370.868	393.89
371.074	-578.89
371.28	-630.09
371.485	-66.9
371.691	680.61
371.896	-664.91
372.102	-726.35
372.307	1055.39
372.512	801.44
372.717	-761.16
372.922	-255.31
373.127	127.66
373.332	395.94
373.537	-441.68
373.741	-517.45
373.946	600.74
374.151	322.21
374.355	-791.88
374.559	-537.93
374.764	307.88
374.968	-326.99
375.172	-623.95
375.376	-255.31
375.58	484
375.784	123.56
375.987	-738.63
376.191	-611.66
376.395	172.71
376.598	148.14
376.802	-669
377.005	-277.84
377.208	236.2
377.412	121.51
377.615	-849.22
377.818	-656.72
378.021	252.58
378.224	-71
378.426	-562.51
378.629	-845.13
378.832	703.14
379.034	572.07
379.237	-845.13
379.439	-888.14
379.642	696.99
379.844	533.15
380.046	-918.86
380.248	-740.68
380.45	-120.15
380.652	-195.92
380.854	-542.03
381.056	-582.99
381.258	375.46
381.459	500.39
381.661	-785.74
381.862	-355.66
382.064	-42.32
382.265	228.01
382.467	-734.54
382.668	-470.35
382.869	684.7
383.07	354.98
383.271	-449.87
383.472	-669
383.673	653.98
383.874	441
384.074	-443.73
384.275	-744.78
384.476	613.03
384.676	1139.35
384.876	-777.55
385.077	-648.52
385.277	748.19
385.477	891.55
385.677	-630.09
385.878	-488.78
386.078	314.02
386.278	246.44
386.477	-318.8
386.677	-255.31
386.877	613.03
387.077	604.83
387.276	-374.1
387.476	-499.02
387.675	371.37
387.875	1006.24
388.074	-703.82
388.273	-488.78
388.472	766.62
388.671	-91.48
388.87	-644.43
389.069	-189.78
389.268	-175.44
389.467	31.4
389.666	-742.73
389.865	-157.01
390.063	588.45
390.262	690.85
390.461	-609.61
390.659	-709.96
390.857	690.85
391.056	604.83
391.254	-632.14
391.452	-621.9
391.65	756.38
391.849	492.2
392.047	-525.65
392.245	-224.59
392.442	248.49
392.64	520.87
392.838	-320.85
393.036	-476.49
393.233	305.83
393.431	344.74
393.629	-916.81
393.826	-509.26
394.023	232.1
394.221	-46.42
394.418	-451.92
394.615	-320.85
394.812	-50.52
395.01	709.28
395.207	-496.97
395.404	-679.24
395.601	969.37
395.797	408.23
395.994	-703.82
396.191	-578.89
396.388	236.2
396.584	649.89
396.781	-331.09
396.977	-34.13
397.174	653.98
397.37	-40.28
397.567	-464.21
397.763	-623.95
397.959	354.98
398.155	336.55
398.352	-482.64
398.548	-202.07
398.744	539.3
398.94	391.84
399.136	-732.49
399.331	-179.54
399.527	365.22
399.723	479.91
399.919	-386.38
400.114	-566.6
400.31	275.11
400.505	533.15
400.701	-447.82
400.896	-617.8
401.092	158.38
401.287	383.65
401.482	-759.11
401.678	-474.45
401.873	608.93
402.068	608.93
402.263	-402.77
402.458	-591.18
402.653	146.09
402.848	580.26
403.043	-486.73
403.237	-693.58
403.432	113.32
403.627	-140.63
403.822	-808.26
404.016	-521.55
404.211	137.9
404.405	602.79
404.6	-193.87
404.794	-222.55
404.989	524.96
405.183	199.34
405.377	-288.08
405.571	-249.17
405.766	477.86
405.96	408.23
406.154	-615.76
406.348	-384.34
406.542	539.3
406.736	461.48
406.93	-628.04
407.124	-355.66
407.318	268.97
407.511	332.45
407.705	-318.8
407.899	-445.77
408.092	512.67
408.286	436.9
408.48	-656.72
408.673	-578.89
408.867	78.51
409.06	295.59
409.253	-306.51
409.447	-378.19
409.64	703.14
409.833	346.79
410.026	-337.23
410.22	-337.23
410.413	711.33
410.606	367.27
410.799	-689.48
410.992	-499.02
411.185	266.92
411.378	1022.62
411.571	-513.36
411.764	-431.44
411.956	582.31
412.149	565.92
412.342	-343.38
412.534	-341.33
412.727	653.98
412.92	379.56
413.112	-476.49
413.305	-154.96
413.497	735.9
413.69	680.61
413.882	-386.38
414.075	-118.1
414.267	541.35
414.459	213.67
414.652	-542.03
414.844	-513.36
415.036	506.53
415.228	891.55
415.42	-212.31
415.612	-507.21
415.804	871.07
415.997	520.87
416.188	-296.27
416.38	-290.13
416.572	146.09
416.764	643.74
416.956	-521.55
417.148	-531.79
417.34	344.74
417.531	-50.52
417.723	-587.08
417.915	-447.82
418.107	133.8
418.298	492.2
418.49	-347.47
418.681	-109.91
418.873	866.97
419.064	457.38
419.256	-269.65
419.447	-501.07
419.639	586.4
419.83	852.64
420.021	-320.85
420.213	-548.17
420.404	359.08
420.595	473.76
420.786	-197.97
420.978	-210.26
421.169	625.31
421.36	391.84
421.551	-449.87
421.742	-445.77
421.933	963.23
422.124	748.19
422.315	-257.36
422.506	-378.19
422.697	582.31
422.888	285.35
423.079	-23.89
423.27	-415.05
423.461	441
423.652	238.25
423.842	-439.63
424.033	-294.22
424.224	772.77
424.415	1110.68
424.605	-238.93
424.796	-435.53
424.987	723.62
425.177	594.59
425.368	-632.14
425.558	-574.8
425.749	436.9
425.939	363.17
426.13	90.79
426.32	-197.97
426.511	303.78
426.701	275.11
426.892	-279.89
427.082	-386.38
427.272	293.54
427.463	551.59
427.653	-245.07
427.843	-177.49
428.034	1077.91
428.224	574.11
428.414	-453.97
428.604	-283.98
428.795	676.51
428.985	637.6
429.175	-15.7
429.365	-175.44
429.555	744.1
429.745	574.11
429.935	-128.34
430.126	23.21
430.316	785.05
430.506	858.78
430.696	-148.82
430.886	-11.61
431.076	772.77
431.266	486.05
431.456	4.78
431.645	-185.68
431.835	502.44
432.025	748.19
432.215	-329.04
432.405	60.07
432.595	760.48
432.785	694.94
432.975	-318.8
433.164	-310.61
433.354	451.24
433.544	772.77
433.734	-294.22
433.923	6.83
434.113	688.8
434.303	662.18
434.493	80.55
434.682	31.4
434.872	881.31
435.062	338.6
435.251	8.87
435.441	-50.52
435.631	1190.55
435.82	754.34
436.01	-75.09
436.2	-42.32
436.389	637.6
436.579	1325.72
436.768	279.21
436.958	383.65
437.147	836.25
437.337	1186.46
437.527	309.93
437.716	82.6
437.906	1221.27
438.095	842.4
438.285	60.07
438.474	287.4
438.664	1340.05
438.853	1073.82
439.043	361.13
439.232	43.69
439.422	1104.54
439.611	1245.85
439.8	182.95
439.99	572.07
440.179	1219.22
440.369	1596.05
440.558	158.38
440.748	363.17
440.937	1014.43
441.126	768.67
441.316	588.45
441.505	385.7
441.695	1514.13
441.884	1901.2
442.073	629.41
442.263	314.02
442.452	1153.69
442.642	1538.71
442.831	426.66
443.02	842.4
443.21	1847.95
443.399	2271.88
443.588	662.18
443.778	826.01
443.967	2202.25
444.156	1733.26
444.346	631.46
444.535	547.49
444.725	2105.99
444.914	1696.4
445.103	690.85
445.293	836.25
445.482	2202.25
445.671	1886.86
445.861	1075.87
446.05	1346.2
446.239	1981.07
446.429	1540.76
446.618	875.17
446.807	1338.01
446.997	2177.67
447.186	2220.68
447.376	1114.78
447.565	1260.18
447.754	2368.13
447.944	2407.05
448.133	1215.13
448.322	961.18
448.512	2028.17
448.701	2636.42
448.891	1325.72
449.08	1338.01
449.269	1571.47
449.459	1917.58
449.648	1022.62
449.838	1198.74
450.027	1942.16
450.217	1698.45
450.406	1018.52
450.595	1358.49
450.785	2325.13
450.974	2153.1
451.164	1254.04
451.353	1225.37
451.543	2116.23
451.732	2550.4
451.922	1206.94
452.111	1114.78
452.301	1782.42
452.49	1772.18
452.68	924.32
452.869	1731.22
453.059	1811.09
453.249	2386.57
453.438	809.63
453.628	1161.88
453.817	2142.86
454.007	2013.84
454.197	787.1
454.386	1172.12
454.576	2529.92
454.765	2189.96
454.955	1235.61
455.145	996
455.334	1907.34
455.524	1567.38
455.714	1403.54
455.904	1039
456.093	2673.28
456.283	2165.39
456.473	1022.62
456.663	1100.44
456.852	2194.06
457.042	1966.73
457.232	1211.03
457.422	1682.07
457.612	2130.57
457.802	2476.68
457.991	891.55
458.181	1077.91
458.371	2204.3
458.561	2142.86
458.751	1145.5
458.941	998.04
459.131	1850
459.321	1727.12
459.511	1360.53
459.701	1204.89
459.891	2101.9
460.081	1589.91
460.271	1157.79
460.461	950.94
460.651	2812.54
460.841	2464.39
461.032	1190.55
461.222	1163.93
461.412	1919.63
461.602	2775.68
461.792	785.05
461.983	952.99
462.173	2050.7
462.363	2738.82
462.554	1194.65
462.744	1180.31
462.934	2370.18
463.125	2122.38
463.315	973.47
463.505	1239.7
463.696	2194.06
463.886	1854.09
464.077	950.94
464.267	934.56
464.458	2562.69
464.648	1612.43
464.839	1462.93
465.03	1188.5
465.22	1723.02
465.411	2054.8
465.601	965.28
465.792	1112.73
465.983	1852.05
466.174	2224.78
466.364	813.73
466.555	1096.35
466.746	2241.16
466.937	1856.14
467.128	1096.35
467.319	1092.25
467.51	2407.05
467.701	2972.29
467.891	1200.79
468.082	1039
468.274	2144.91
468.465	1518.23
468.656	1243.8
468.847	924.32
469.038	1686.16
469.229	1876.62
469.42	1290.9
469.612	1053.34
469.803	2280.07
469.994	2251.4
470.185	1258.14
470.377	1077.91
470.568	2097.8
470.76	2183.82
470.951	1145.5
471.142	1401.49
471.334	2380.42
471.526	2169.48
471.717	1587.86
471.909	1039
472.1	2030.22
472.292	2241.16
472.484	1147.55
472.675	1211.03
472.867	2091.66
473.059	2665.09
473.251	1419.93
473.443	1145.5
473.635	2284.17
473.826	2484.87
474.018	1174.17
474.21	1450.64
474.402	2265.74
474.595	2699.91
474.787	1243.8
474.979	1524.37
475.171	2048.65
475.363	1829.52
475.555	1174.17
475.748	1376.92
475.94	2484.87
476.132	2210.44
476.325	1239.7
476.517	1876.62
476.71	3144.31
476.902	2103.95
477.095	1481.36
477.287	1804.94
477.48	2644.61
477.673	2603.65
477.865	1680.02
478.058	1563.28
478.251	2689.67
478.444	2982.53
478.636	1723.02
478.829	1542.8
479.022	2673.28
479.215	2802.3
479.408	1776.27
479.601	2304.65
479.794	2466.44
479.988	2476.68
480.181	1979.02
480.374	1790.61
480.567	2892.41
480.76	3369.59
480.954	1890.96
481.147	1548.95
481.341	2495.11
481.534	2589.32
481.728	2038.41
481.921	2230.92
482.115	3164.79
482.308	3396.21
482.502	1925.77
482.696	1966.73
482.89	3738.23
483.084	3113.6
483.277	2155.15
483.471	2151.05
483.665	3353.21
483.859	4205.16
484.053	1833.61
484.247	1956.49
484.442	2947.71
484.636	2935.42
484.83	2140.81
485.024	2347.65
485.219	3039.87
485.413	3000.96
485.608	2153.1
485.802	2472.58
485.997	3652.21
486.191	3232.38
486.386	2187.91
486.58	2464.39
486.775	3453.56
486.97	3697.27
487.165	2349.7
487.36	2427.53
487.555	3469.94
487.75	3170.94
487.945	2751.1
488.14	2318.98
488.335	3189.37
488.53	3211.9
488.725	2431.62
488.92	2597.51
489.116	3988.08
489.311	3619.44
489.507	2376.33
489.702	3097.21
489.898	4008.56
490.093	3177.08
490.289	3078.78
490.485	2701.95
490.68	3027.58
490.876	4055.66
491.072	2384.52
491.268	2783.87
491.464	4053.61
491.66	3912.3
491.856	2843.26
492.052	3318.39
492.248	3930.73
492.445	3766.9
492.641	2775.68
492.837	2783.87
493.034	4250.22
493.23	4360.81
493.427	3191.42
493.623	2865.79
493.82	3889.78
494.017	4405.86
494.214	3021.44
494.41	2796.16
494.607	4031.09
494.804	3621.49
495.001	3046.01
495.198	2996.86
495.395	4016.75
495.593	4272.75
495.79	2939.52
495.987	2986.62
496.184	3537.52
496.382	4184.68
496.579	2814.59
496.777	3082.88
496.974	4692.58
497.172	4276.84
497.37	3127.93
497.568	2888.32
497.766	4901.47
497.963	4119.15
498.161	3113.6
498.359	3328.63
498.558	4680.29
498.756	4391.53
498.954	2974.33
499.152	3607.16
499.351	4465.25
499.549	4211.31
499.747	3156.6
499.946	3254.9
500.145	4078.19
500.343	4092.52
500.542	3172.99
500.741	3271.29
500.94	4498.02
501.139	4465.25
501.338	3308.15
501.537	3629.68
501.736	4864.61
501.935	4399.72
502.134	3132.03
502.334	3328.63
502.533	4661.86
502.733	4559.46
502.932	3273.34
503.132	3324.54
503.331	4115.05
503.531	4645.48
503.731	3385.98
503.931	3414.65
504.131	4094.57
504.331	4622.95
504.531	3324.54
504.731	3388.02
504.931	4323.94
505.132	4164.2
505.332	3367.54
505.532	3187.32
505.733	4551.27
505.933	4948.58
506.134	3496.57
506.335	3302.01
506.536	4090.48
506.736	4713.06
506.937	3351.16
507.138	3250.81
507.34	5143.13
507.541	4504.17
507.742	3603.06
507.943	3205.75
508.145	4276.84
508.346	3951.21
508.548	3082.88
508.749	3291.77
508.951	3914.35
509.153	4080.24
509.354	3408.5
509.556	3365.5
509.758	4668
509.96	3891.82
510.163	3433.08
510.365	3517.05
510.567	4061.8
510.769	4070
510.972	3261.05
511.174	3791.47
511.377	3840.62
511.58	5253.72
511.782	3248.76
511.985	3148.41
512.188	5040.73
512.391	4569.7
512.594	3035.77
512.797	3529.33
513.001	4700.77
513.204	4790.88
513.407	3420.79
513.611	3279.48
513.814	4504.17
514.018	4651.62
514.222	3398.26
514.425	3439.22
514.629	4471.4
514.833	4381.29
515.037	3566.2
515.241	3281.53
515.445	3947.12
515.65	3914.35
515.854	3396.21
516.059	3263.1
516.263	4369
516.468	4366.95
516.672	3254.9
516.877	3213.95
517.082	3897.97
517.287	4323.94
517.492	3594.87
517.697	3259
517.902	4375.14
518.107	3906.16
518.313	3316.34
518.518	3273.34
518.724	4829.79
518.929	4137.58
519.135	3299.96
519.341	2880.13
519.547	4192.87
519.753	4469.35
519.959	3207.8
520.165	3291.77
520.371	4414.06
520.577	4735.59
520.784	3123.84
520.99	3644.02
521.197	4235.88
521.404	4262.51
521.61	2957.95
521.817	2970.24
522.024	4473.45
522.231	3963.5
522.438	2630.27
522.645	3365.5
522.853	3889.78
523.06	4356.71
523.268	3095.16
523.475	3134.07
523.683	4047.47
523.891	4213.35
524.098	2800.26
524.306	3179.13
524.514	4006.51
524.722	3834.48
524.931	3097.21
525.139	2912.89
525.347	3416.69
525.556	3957.36
525.764	3224.19
525.973	3209.85
526.182	4119.15
526.391	3689.07
526.6	2960
526.809	3060.35
527.018	4074.09
527.227	4053.61
527.436	3121.79
527.646	2925.18
527.855	4098.67
528.065	3852.91
528.275	2941.57
528.484	2861.69
528.694	4100.72
528.904	3994.22
529.114	2843.26
529.325	2941.57
529.535	3474.04
529.745	4002.41
529.956	2769.54
530.166	2843.26
530.377	3791.47
530.588	4371.05
530.799	3058.3
531.01	2796.16
531.221	4035.18
531.432	4153.96
531.643	2982.53
531.855	3484.28
532.066	3994.22
532.278	3801.71
532.489	2794.11
532.701	2587.27
532.913	4170.35
533.125	3994.22
533.337	2595.46
533.549	2734.72
533.762	3848.82
533.974	3203.71
534.186	2501.25
534.399	2839.17
534.612	4094.57
534.825	3572.34
535.037	2867.84
535.25	2890.37
535.464	3416.69
535.677	4160.11
535.89	2546.31
536.104	2775.68
536.317	3529.33
536.531	3555.96
536.744	2962.05
536.958	2712.19
537.172	3596.92
537.386	3619.44
537.6	2630.27
537.815	2697.86
538.029	3711.6
538.244	3832.43
538.458	2300.55
538.673	2525.83
538.888	3617.4
539.103	4045.42
539.318	2663.04
539.533	2415.24
539.748	3424.89
539.963	3156.6
540.179	2210.44
540.394	2230.92
540.61	2824.83
540.826	3351.16
541.042	2374.28
541.258	2300.55
541.474	3971.69
541.69	3256.95
541.906	2527.88
542.123	2392.71
542.339	3244.67
542.556	2996.86
542.773	2275.98
542.99	2366.09
543.207	3220.09
543.424	3003
543.641	2361.99
543.858	2491.01
544.076	3103.36
544.293	2890.37
544.511	2110.09
544.729	2165.39
544.947	3025.53
545.165	3029.63
545.383	2171.53
545.601	2189.96
545.819	3295.86
546.038	3060.35
546.256	2261.64
546.475	2136.71
546.694	3912.3
546.913	3402.36
547.132	2634.37
547.351	2140.81
547.57	2677.38
547.79	2554.5
548.009	2105.99
548.229	1989.26
548.449	2615.94
548.668	3334.78
548.888	2278.02
549.109	2146.95
549.329	3291.77
549.549	3340.92
549.77	2032.27
549.99	2171.53
550.211	3213.95
550.432	3426.93
550.653	1909.39
550.874	2206.35
551.095	3627.64
551.316	2804.35
551.538	1925.77
551.759	2083.47
551.981	2876.03
552.203	3211.9
552.424	1966.73
552.646	2339.46
552.869	2677.38
553.091	2759.3
553.313	1972.88
553.536	1931.92
553.758	3185.27
553.981	2708.1
554.204	1890.96
554.427	2128.52
554.65	3201.66
554.873	2382.47
555.097	1645.2
555.32	1884.81
555.544	3160.7
555.768	3017.34
555.992	1827.47
556.216	1700.5
556.44	2321.03
556.664	3056.25
556.888	2224.78
557.113	1573.52
557.337	3371.64
557.562	3158.65
557.787	1602.19
558.012	1987.21
558.237	2683.52
558.462	2734.72
558.688	2095.75
558.913	1960.59
559.139	2292.36
559.365	2896.51
559.591	1718.93
559.817	1663.63
560.043	3035.77
560.269	3230.33
560.496	2079.37
560.722	1874.57
560.949	3181.18
561.176	2314.89
561.403	1739.41
561.63	1989.26
561.857	2237.06
562.084	2325.13
562.312	1667.73
562.539	1911.44
562.767	3228.28
562.995	2439.81
563.223	1770.13
563.451	1899.15
563.679	2501.25
563.908	2583.17
564.136	1852.05
564.365	1933.97
564.594	2128.52
564.823	3660.4
565.052	1753.74
565.281	1432.21
565.51	2572.93
565.74	2400.9
565.969	1434.26
566.199	1899.15
566.429	2755.2
566.659	2865.79
566.889	1534.61
567.119	1735.31
567.35	3066.49
567.58	2833.02
567.811	1708.69
568.042	1620.63
568.273	2620.03
568.504	2884.22
568.735	1702.54
568.966	1788.56
569.198	2720.39
569.43	2902.65
569.661	1817.23
569.893	1923.73
570.125	3041.92
570.358	2976.38
570.59	1587.86
570.822	1706.64
571.055	2800.26
571.288	2884.22
571.521	1561.23
571.754	1628.82
571.987	3160.7
572.22	2546.31
572.454	1694.35
572.687	1565.33
572.921	2122.38
573.155	2572.93
573.389	2202.25
573.623	2017.93
573.858	2390.66
574.092	2906.75
574.327	1815.18
574.561	1987.21
574.796	2200.2
575.031	2716.29
575.266	1692.3
575.502	1671.83
575.737	2906.75
575.973	2474.63
576.209	1710.74
576.445	1645.2
576.681	2361.99
576.917	2656.9
577.153	1538.71
577.39	1583.76
577.626	2554.5
577.863	2372.23
578.1	1419.93
578.337	1813.14
578.574	2402.95
578.812	3013.24
579.049	1823.37
579.287	1483.41
579.525	2720.39
579.763	2808.45
580.001	1471.12
580.239	1645.2
580.478	3037.82
580.716	2640.51
580.955	1680.02
581.194	1800.85
581.433	2882.17
581.672	2517.64
581.911	1550.99
582.151	1464.98
582.39	2382.47
582.63	3056.25
582.87	1585.81
583.11	1518.23
583.35	1995.4
583.591	2400.9
583.831	1811.09
584.072	1956.49
584.313	2648.71
584.554	2579.08
584.795	1657.49
585.036	1692.3
585.277	3351.16
585.519	3005.05
585.761	1362.58
586.003	1501.84
586.245	2603.65
586.487	3084.92
586.729	1966.73
586.972	1702.54
587.215	3404.41
587.457	2189.96
587.7	1870.48
587.944	1680.02
588.187	2443.91
588.43	2384.52
588.674	1591.95
588.918	1473.17
589.162	2951.81
589.406	2349.7
589.65	1507.99
589.894	2296.46
590.139	2638.47
590.384	2865.79
590.629	1462.93
590.874	1661.59
591.119	2108.04
591.364	2812.54
591.61	1606.29
591.855	1493.65
592.101	3046.01
592.347	2640.51
592.593	1596.05
592.84	1909.39
593.086	3181.18
593.333	2179.72
593.58	1598.1
593.827	1327.77
594.074	2591.36
594.321	2466.44
594.568	1417.88
594.816	1292.95
595.064	2540.16
595.312	2521.73
595.56	1401.49
595.808	1817.23
596.057	2783.87
596.305	2450.05
596.554	1145.5
596.803	1710.74
597.052	2767.49
597.301	2900.61
597.551	1321.62
597.8	1759.89
598.05	2564.74
598.3	2296.46
598.55	1237.66
598.8	1407.64
599.051	2097.8
599.301	2347.65
599.552	1221.27
599.803	1768.08
600.054	2697.86
600.305	2486.92
600.556	1712.78
600.808	1663.63
601.06	2288.26
601.312	2613.89
601.564	1600.15
601.816	1307.29
602.068	2853.5
602.321	2620.03
602.574	1594
602.827	1274.52
603.08	2380.42
603.333	2448.01
603.587	1335.96
603.84	1585.81
604.094	2577.03
604.348	2120.33
604.602	1213.08
604.856	1292.95
605.111	2458.25
605.365	2538.12
605.62	1550.99
605.875	1229.46
606.13	2486.92
606.386	2351.75
606.641	1239.7
606.897	1116.83
607.153	2214.54
607.409	2726.53
607.665	1047.19
607.921	1227.42
608.178	1997.45
608.435	2517.64
608.692	1178.26
608.949	1424.02
609.206	2718.34
609.463	2398.85
609.721	1321.62
609.979	1497.75
610.237	2294.41
610.495	2562.69
610.753	1624.72
611.012	1395.35
611.27	2615.94
611.529	2335.37
611.788	1342.1
612.047	1172.12
612.307	1815.18
612.566	2411.14
612.826	1206.94
613.086	1313.43
613.346	1835.66
613.606	2357.89
613.867	1260.18
614.127	1622.67
614.388	1845.9
614.649	2491.01
614.91	1088.15
615.172	1452.69
615.433	1907.34
615.695	2054.8
615.957	1432.21
616.219	1229.46
616.481	2540.16
616.743	1999.5
617.006	801.44
617.269	1239.7
617.532	2464.39
617.795	2376.33
618.058	1196.7
618.322	1405.59
618.586	2312.84
618.849	1811.09
619.114	1469.08
619.378	893.6
619.642	2288.26
619.907	2374.28
620.172	1258.14
620.437	1194.65
620.702	2382.47
620.967	1931.92
621.233	1122.97
621.499	1098.39
621.765	2085.51
622.031	2263.69
622.297	1073.82
622.564	1098.39
622.83	1942.16
623.097	2658.95
623.364	1295
623.631	1530.52
623.899	2382.47
624.166	2251.4
624.434	1063.58
624.702	1026.72
624.97	2411.14
625.239	1778.32
625.507	1000.09
625.776	1338.01
626.045	1735.31
626.314	2071.18
626.584	1110.68
626.853	1030.81
627.123	1923.73
627.393	1514.13
627.663	1067.67
627.933	946.84
628.204	2341.51
628.474	2185.87
628.745	955.04
629.016	1176.22
629.287	1936.01
629.559	1821.33
629.83	823.97
630.102	996
630.374	1583.76
630.646	2507.4
630.919	996
631.191	1309.33
631.464	1833.61
631.737	1532.56
632.01	916.12
632.284	975.52
632.557	2361.99
632.831	2138.76
633.105	912.03
633.379	975.52
633.654	1538.71
633.928	1964.68
634.203	1047.19
634.478	803.49
634.753	1872.53
635.028	1931.92
635.304	1092.25
635.58	952.99
635.856	1903.25
636.132	1727.12
636.408	885.41
636.685	920.22
636.961	1735.31
637.238	1843.85
637.515	787.1
637.793	989.85
638.07	1952.4
638.348	1766.03
638.626	965.28
638.904	1096.35
639.182	1264.28
639.461	1288.86
639.74	883.36
640.019	936.6
640.298	1049.24
640.577	1620.63
640.857	848.54
641.136	899.74
641.416	1704.59
641.696	2312.84
641.977	866.97
642.257	940.7
642.538	1880.72
642.819	2179.72
643.1	748.19
643.382	633.51
643.663	1989.26
643.945	1804.94
644.227	817.82
644.509	647.84
644.792	2136.71
645.074	1753.74
645.357	715.42
645.64	596.64
645.923	1604.24
646.207	1833.61
646.49	735.9
646.774	600.74
647.058	1591.95
647.342	1880.72
647.627	502.44
647.911	514.72
648.196	1956.49
648.481	1950.35
648.767	664.22
649.052	703.14
649.338	1325.72
649.624	1426.07
649.91	441
650.196	555.68
650.483	1811.09
650.77	1850
651.057	1034.91
651.344	713.38
651.631	1637.01
651.919	1473.17
652.207	529.06
652.495	664.22
652.783	1718.93
653.071	1708.69
653.36	352.93
653.649	533.15
653.938	1411.73
654.227	1809.04
654.517	809.63
654.806	481.96
655.096	1143.45
655.387	1903.25
655.677	674.46
655.968	570.02
656.258	1301.14
656.549	1860.24
656.841	828.06
657.132	547.49
657.424	1338.01
657.716	1692.3
658.008	580.26
658.3	359.08
658.592	1579.67
658.885	1858.19
659.178	397.99
659.471	346.79
659.765	1014.43
660.058	1487.51
660.352	408.23
660.646	443.04
660.94	1870.48
661.235	1653.39
661.53	828.06
661.824	154.28
662.12	1458.84
662.415	838.3
662.711	316.07
663.006	631.46
663.302	1159.83
663.599	959.13
663.895	467.62
664.192	619.17
664.489	1686.16
664.786	1655.44
665.083	117.42
665.381	334.5
665.678	1292.95
665.976	1534.61
666.275	107.18
666.573	404.13
666.872	998.04
667.171	1342.1
667.47	189.1
667.769	158.38
668.069	1567.38
668.368	1460.88
668.668	-9.56
668.969	74.41
669.269	1219.22
669.57	924.32
669.871	271.01
670.172	295.59
670.473	1553.04
670.775	1663.63
671.077	135.85
671.379	367.27
671.681	1598.1
671.983	1376.92
672.286	92.84
672.589	348.84
672.892	1270.42
673.196	1311.38
673.499	162.47
673.803	197.29
674.107	1440.4
674.411	1096.35
674.716	408.23
675.021	432.8
675.326	1133.21
675.631	1493.65
675.936	-42.32
676.242	162.47
676.548	905.88
676.854	1653.39
677.16	-103.76
677.467	203.43
677.774	1243.8
678.081	1049.24
678.388	395.94
678.696	481.96
679.004	1378.97
679.312	1737.36
679.62	176.81
679.928	236.2
680.237	1460.88
680.546	598.69
680.855	174.76
681.164	92.84
681.474	1370.77
681.784	1295
682.094	191.14
682.404	-105.81
682.715	1628.82
683.026	539.3
683.337	27.31
683.648	416.42
683.959	1655.44
684.271	1309.33
684.583	166.57
684.895	-154.96
685.208	1221.27
685.52	1352.34
685.833	303.78
686.146	60.07
686.46	1546.9
686.773	967.32
687.087	266.92
687.401	-9.56
687.716	1223.32
688.03	1161.88
688.345	-228.69
688.66	260.77
688.975	1282.71
689.291	1165.98
689.607	615.07
689.923	33.45
690.239	1018.52
690.555	1381.01
690.872	113.32
691.189	-161.11
691.506	1116.83
691.824	1487.51
692.142	-93.52
692.459	103.08
692.778	770.72
693.096	1211.03
693.415	318.12
693.734	162.47
694.053	989.85
694.372	359.08
694.692	-181.59
695.012	111.27
695.332	834.21
695.652	987.8
695.973	39.59
696.294	-64.85
696.615	703.14
696.936	1448.6
697.258	-324.94
697.579	39.59
697.902	653.98
698.224	832.16
698.546	-171.35
698.869	-263.51
699.192	768.67
699.516	1366.68
699.839	-114
700.163	37.55
700.487	653.98
700.811	1530.52
701.136	-296.27
701.461	-66.9
701.786	1082.01
702.111	1512.08
702.436	-304.46
702.762	58.03
703.088	1237.66
703.415	1507.99
703.741	70.31
704.068	-253.27
704.395	752.29
704.722	1149.59
705.05	-208.21
705.377	-109.91
705.705	1030.81
706.034	936.6
706.362	-384.34
706.691	-415.05
707.02	1172.12
707.349	957.08
707.679	-73.04
708.009	-224.59
708.339	989.85
708.669	920.22
709	-144.72
709.33	-382.29
709.661	946.84
709.993	707.23
710.324	-15.7
710.656	-255.31
710.988	948.89
711.321	1145.5
711.653	-421.2
711.986	-44.37
712.319	301.73
712.652	1079.96
712.986	74.41
713.32	-185.68
713.654	1100.44
713.988	1120.92
714.323	-114
714.658	-97.62
714.993	752.29
715.328	707.23
715.664	0.68
716	105.13
716.336	1295
716.673	633.51
717.009	-64.85
717.346	-91.48
717.683	1354.39
718.021	811.68
718.359	-359.76
718.697	-154.96
719.035	686.75
719.373	547.49
719.712	8.87
720.051	-363.86
720.39	1059.48
720.73	678.56
721.07	-247.12
721.41	-302.42
721.75	1082.01
722.091	979.61
722.432	-154.96
722.773	92.84
723.114	780.96
723.456	621.22
723.798	-259.41
724.14	-167.25
724.482	662.18
724.825	842.4
725.168	-40.28
725.511	-240.98
725.855	785.05
726.198	580.26
726.542	-324.94
726.887	139.94
727.231	1055.39
727.576	441
727.921	-122.2
728.266	-410.96
728.612	711.33
728.958	989.85
729.304	-394.58
729.651	170.66
729.997	510.63
730.344	660.13
730.691	-300.37
731.039	-89.43
731.387	719.52
731.735	567.97
732.083	-130.39
732.431	-13.65
732.78	617.12
733.129	17.07
733.479	-335.18
733.828	-114
734.178	541.35
734.528	189.1
734.879	-79.19
735.23	-398.67
735.581	957.08
735.932	613.03
736.283	-181.59
736.635	-386.38
736.987	1084.06
737.34	1030.81
737.692	-394.58
738.045	-443.73
738.398	772.77
738.752	899.74
739.105	-480.59
739.459	-71
739.814	1034.91
740.168	1014.43
740.523	-517.45
740.878	-46.42
741.233	670.37
741.589	950.94
741.945	-240.98
742.301	-181.59
742.657	1065.63
743.014	481.96
743.371	-251.22
743.728	260.77
744.086	780.96
744.444	567.97
744.802	-480.59
745.16	-390.48
745.519	805.53
745.878	461.48
746.237	-410.96
746.597	-175.44
746.956	989.85
747.316	600.74
747.677	-439.63
748.037	-236.88
748.398	619.17
748.759	754.34
749.121	-130.39
749.482	-124.24
749.844	467.62
750.207	305.83
750.569	-615.76
750.932	-66.9
751.295	1176.22
751.659	690.85
752.022	-417.1
752.386	113.32
752.751	543.39
753.115	115.37
753.48	-357.71
753.845	-349.52
754.21	658.08
754.576	494.24
754.942	-443.73
755.308	-122.2
755.675	465.57
756.041	1073.82
756.409	-554.32
756.776	-236.88
757.144	1190.55
757.511	871.07
757.88	-449.87
758.248	-656.72
758.617	17.07
758.986	651.94
759.355	-183.63
759.725	-251.22
760.095	271.01
760.465	975.52
760.836	-542.03
761.206	-345.42
761.577	948.89
761.949	277.16
762.32	-206.16
762.692	-515.41
763.065	481.96
763.437	322.21
763.81	-605.52
764.183	-302.42
764.556	1026.72
764.93	432.8
765.304	-73.04
765.678	-148.82
766.053	541.35
766.428	443.04
766.803	-566.6
767.178	-513.36
767.554	12.97
767.93	406.18
768.306	-494.93
768.683	-445.77
769.06	783.01
769.437	527.01
769.814	-544.08
770.192	-623.95
770.57	400.04
770.948	1211.03
771.327	-308.56
771.706	-626
772.085	699.04
772.464	993.95
772.844	-316.75
773.224	-589.13
773.605	148.14
773.985	219.82
774.366	-302.42
774.748	-32.08
775.129	930.46
775.511	666.27
775.893	-378.19
776.276	-253.27
776.658	844.45
777.041	629.41
777.425	-619.85
777.808	-326.99
778.192	252.58
778.576	1055.39
778.961	-691.53
779.346	-378.19
779.731	645.79
780.116	2.73
780.502	-421.2
780.888	-404.82
781.274	510.63
781.661	303.78
782.048	-566.6
782.435	-582.99
782.823	342.69
783.21	621.22
783.598	-404.82
783.987	-376.14
784.376	838.3
784.765	318.12
785.154	-300.37
785.544	-492.88
785.933	645.79
786.324	295.59
786.714	-267.6
787.105	-681.29
787.496	596.64
787.888	279.21
788.279	-580.94
788.671	-474.45
789.064	428.71
789.456	674.46
789.849	-685.39
790.242	-560.46
790.636	211.62
791.03	651.94
791.424	-564.56
791.818	1108.63
792.213	758.43
792.608	557.73
793.004	-296.27
793.399	-681.29
793.795	510.63
794.192	297.64
794.588	-474.45
794.985	-722.25
795.382	524.96
795.78	432.8
796.178	-386.38
796.576	-435.53
796.974	1084.06
797.373	461.48
797.772	-509.26
798.172	-574.8
798.571	375.46
798.971	754.34
799.372	-390.48
799.772	-396.62
800.173	924.32
800.574	545.44
800.976	-476.49
801.378	-648.52
801.78	189.1
802.182	-17.75
802.585	-427.34
802.988	-572.75
803.392	170.66
803.795	144.04
804.199	-558.41
804.604	-423.25
805.008	613.03
805.413	1006.24
805.819	-525.65
806.224	-652.62
806.63	484
807.036	584.35
807.443	-402.77
807.85	-337.23
808.257	522.91
808.664	463.52
809.072	-107.86
809.48	-271.7
809.889	719.52
810.297	694.94
810.706	-134.48
811.116	-550.22
811.526	342.69
811.936	330.41
812.346	-537.93
812.757	-505.17
813.167	441
813.579	330.41
813.99	-394.58
814.402	-550.22
814.814	1034.91
815.227	426.66
815.64	-669
816.053	-482.64
816.467	694.94
816.88	484
817.294	-263.51
817.709	-234.83
818.124	301.73
818.539	920.22
818.954	-398.67
819.37	-210.26
819.786	21.16
820.202	623.27
820.619	-787.79
821.036	-548.17
821.453	805.53
821.871	412.32
822.289	-492.88
822.707	-611.66
823.126	643.74
823.545	68.27
823.964	-548.17
824.384	-623.95
824.804	238.25
825.224	645.79
825.645	-238.93
826.065	-642.38
826.487	678.56
826.908	762.53
827.33	-337.23
827.752	-163.15
828.175	500.39
828.598	768.67
829.021	-187.73
829.444	223.91
829.868	572.07
830.292	246.44
830.717	-621.9
831.142	-613.71
831.567	113.32
831.992	244.39
832.418	6.83
832.844	-521.55
833.27	557.73
833.697	377.51
834.124	-777.55
834.552	-701.77
834.979	887.45
835.408	608.93
835.836	-693.58
836.265	-441.68
836.694	326.31
837.123	653.98
837.553	-585.04
837.983	-726.35
838.413	694.94
838.844	658.08
839.275	-587.08
839.706	-380.24
840.138	948.89
840.57	252.58
841.003	-509.26
841.435	-384.34
841.868	236.2
842.302	277.16
842.735	-425.29
843.169	-638.28
843.604	604.83
844.039	367.27
844.474	-591.18
844.909	-632.14
845.345	653.98
845.781	539.3
846.217	-511.31
846.654	-658.76
847.091	625.31
847.528	348.84
847.966	-648.52
848.404	-513.36
848.842	981.66
849.281	-144.72
849.72	-484.69
850.16	-607.56
850.599	246.44
851.039	187.05
851.48	-204.11
851.921	-507.21
852.362	656.03
852.803	785.05
853.245	-759.11
853.687	-392.53
854.129	615.07
854.572	262.82
855.015	-779.59
855.459	-546.12
855.903	62.12
856.347	686.75
856.791	-394.58
857.236	-556.36
857.681	952.99
858.127	1170.07
858.572	-204.11
859.019	-562.51
859.465	731.81
859.912	547.49
860.359	-693.58
860.807	-585.04
861.255	234.15
861.703	631.46
862.151	-456.01
862.6	-87.38
863.05	617.12
863.499	301.73
863.949	-480.59
864.4	-626
864.85	996
865.301	629.41
865.752	-529.74
866.204	-589.13
866.656	195.24
867.109	789.15
867.561	-613.71
868.014	-245.07
868.468	625.31
868.921	637.6
869.376	-474.45
869.83	-554.32
870.285	447.14
870.74	162.47
871.195	-326.99
871.651	-386.38
872.107	950.94
872.564	223.91
873.021	-673.1
873.478	-648.52
873.936	744.1
874.394	703.14
874.852	-501.07
875.31	-255.31
875.769	477.86
876.229	1002.14
876.688	-365.9
877.148	-472.4
877.609	334.5
878.069	271.01
878.531	-261.46
878.992	-722.25
879.454	393.89
879.916	426.66
880.378	-550.22
880.841	-558.41
881.304	15.02
881.768	137.9
882.232	-650.57
882.696	-263.51
883.161	82.6
883.626	400.04
884.091	-451.92
884.557	-505.17
885.023	101.03
885.489	678.56
885.956	-752.97
886.423	-574.8
886.89	43.69
887.358	303.78
887.826	-501.07
888.295	-431.44
888.763	92.84
889.233	977.56
889.702	-527.69
890.172	-628.04
890.642	354.98
891.113	297.64
891.584	-154.96
892.055	-507.21
892.527	645.79
892.999	842.4
893.472	-615.76
893.944	-296.27
894.417	416.42
894.891	29.35
895.365	-337.23
895.839	-415.05
896.314	559.78
896.789	-279.89
897.264	-537.93
897.74	-615.76
898.216	772.77
898.692	631.46
899.169	-562.51
899.646	-599.37
900.123	510.63
900.601	1002.14
901.079	-550.22
901.558	-425.29
902.037	613.03
902.516	432.8
902.996	-759.11
903.476	-707.91
903.956	373.41
904.437	690.85
904.918	-697.67
905.399	-716.11
905.881	594.59
906.363	580.26
906.846	-677.19
907.329	-474.45
907.812	58.03
908.296	600.74
908.78	-638.28
909.264	-703.82
909.749	156.33
910.234	750.24
910.719	-660.81
911.205	-333.14
911.691	-122.2
912.178	565.92
912.665	-206.16
913.152	-599.37
913.64	162.47
914.128	596.64
914.616	-466.25
915.105	-550.22
915.594	373.41
916.084	914.08
916.574	-406.86
917.064	-607.56
917.555	-19.8
918.046	492.2
918.537	-126.29
919.029	-875.85
919.521	139.94
920.013	899.74
920.506	-427.34
920.999	-736.59
921.493	727.71
921.987	244.39
922.481	-294.22
922.976	-509.26
923.471	268.97
923.967	504.48
924.462	-443.73
924.959	-582.99
925.455	678.56
925.952	324.26
926.449	-671.05
926.947	-533.84
927.445	393.89
927.944	311.97
928.442	-783.69
928.942	-761.16
929.441	621.22
929.941	92.84
930.442	-695.63
930.942	-603.47
931.443	692.9
931.945	-9.56
932.447	-714.06
932.949	-466.25
933.451	174.76
933.954	281.25
934.458	-363.86
934.961	-628.04
935.465	170.66
935.97	164.52
936.475	-372.05
936.98	-646.48
937.486	-210.26
937.992	258.73
938.498	-523.6
939.005	-529.74
939.512	156.33
940.019	508.58
940.527	-501.07
941.035	-374.1
941.544	653.98
942.053	326.31
942.562	-304.46
943.072	-187.73
943.582	588.45
944.093	221.86
944.604	-701.77
945.115	-582.99
945.627	647.84
946.139	858.78
946.651	-615.76
947.164	-466.25
947.677	524.96
948.191	408.23
948.705	-613.71
949.219	-681.29
949.734	215.72
950.249	662.18
950.765	-615.76
951.281	-628.04
951.797	1381.01
952.314	731.81
952.831	-648.52
953.348	-722.25
953.866	637.6
954.384	168.62
954.903	-597.32
955.422	-730.44
955.941	359.08
956.461	354.98
956.981	-603.47
957.502	-347.47
958.023	639.65
958.544	404.13
959.066	-464.21
959.588	-714.06
960.11	47.79
960.633	770.72
961.156	-546.12
961.68	-582.99
962.204	838.3
962.729	51.88
963.253	-623.95
963.779	8.87
964.304	469.67
964.83	961.18
965.357	-742.73
965.883	-492.88
966.411	418.47
966.938	594.59
967.466	-576.84
967.994	-726.35
968.523	246.44
969.052	838.3
969.582	-623.95
970.112	-607.56
970.642	41.64
971.173	748.19
971.704	-599.37
972.235	-372.05
972.767	418.47
973.3	348.84
973.832	-390.48
974.365	-720.2
974.899	455.33
975.433	486.05
975.967	-724.3
976.502	-312.66
977.037	383.65
977.572	793.25
978.108	-589.13
978.644	-795.98
979.181	1067.67
979.718	633.51
980.255	-1045.83
980.793	-456.01
981.331	-243.03
981.87	746.14
982.409	-542.03
982.948	-335.18
983.488	213.67
984.028	877.21
984.569	-513.36
985.11	-523.6
985.651	793.25
986.193	527.01
986.735	-812.36
987.278	-752.97
987.821	19.11
988.364	277.16
988.908	-335.18
989.452	-707.91
989.997	-423.25
990.542	459.43
991.088	-566.6
991.633	-249.17
992.18	219.82
992.726	-93.52
993.273	-441.68
993.821	-443.73
994.369	359.08
994.917	752.29
995.465	-746.83
996.014	-875.85
996.564	615.07
997.114	150.18
997.664	-443.73
998.215	-662.86
998.766	490.15
999.317	-58.71
999.869	-521.55
1000.421	-808.26
1000.974	578.21
1001.527	596.64
1002.081	-836.94
1002.635	-345.42
1003.189	387.75
1003.744	715.42
1004.299	-820.55
1004.854	-595.28
1005.41	828.06
1005.967	232.1
1006.523	-650.57
1007.081	-410.96
1007.638	516.77
1008.196	486.05
1008.755	-679.24
1009.313	-480.59
1009.873	547.49
1010.432	-87.38
1010.992	-275.79
1011.553	-482.64
1012.114	418.47
1012.675	-30.04
1013.237	-353.62
1013.799	-228.69
1014.361	527.01
1014.924	-75.09
1015.487	-681.29
1016.051	-492.88
1016.615	760.48
1017.18	549.54
1017.745	-709.96
1018.31	-226.64
1018.876	819.87
1019.442	393.89
1020.009	-509.26
1020.576	-800.07
1021.143	334.5
1021.711	721.57
1022.28	-482.64
1022.848	-513.36
1023.417	862.88
1023.987	248.49
1024.557	-599.37
1025.127	-648.52
1025.698	-17.75
1026.269	-5.46
1026.841	-773.45
1027.413	-517.45
1027.985	223.91
1028.558	332.45
1029.131	-701.77
1029.705	-472.4
1030.279	397.99
1030.854	416.42
1031.429	-673.1
1032.004	-173.39
1032.58	754.34
1033.156	23.21
1033.733	-685.39
1034.31	-632.14
1034.887	711.33
1035.465	694.94
1036.043	-927.05
1036.622	-562.51
1037.201	252.58
1037.781	701.09
1038.361	-632.14
1038.941	-795.98
1039.522	412.32
1040.103	801.44
1040.685	-574.8
1041.267	-339.28
1041.85	1180.31
1042.433	555.68
1043.016	-691.53
1043.6	-505.17
1044.184	-226.64
1044.769	563.87
1045.354	-468.3
1045.939	-763.21
1046.525	264.87
1047.111	479.91
1047.698	-433.49
1048.285	-836.94
1048.873	471.72
1049.461	-11.61
1050.049	-720.2
1050.638	-750.92
1051.228	49.83
1051.817	791.2
1052.407	-722.25
1052.998	-312.66
1053.589	506.53
1054.18	588.45
1054.772	-941.38
1055.365	-650.57
1055.957	537.25
1056.55	168.62
1057.144	-492.88
1057.738	-705.87
1058.333	230.06
1058.927	148.14
1059.523	-564.56
1060.118	-738.63
1060.715	68.27
1061.311	524.96
1061.908	-705.87
1062.506	-433.49
1063.103	547.49
1063.702	-11.61
1064.3	-957.77
1064.9	-785.74
1065.499	897.69
1066.099	72.36
1066.7	-597.32
1067.301	-836.94
1067.902	801.44
1068.504	617.12
1069.106	-351.57
1069.709	-439.63
1070.312	744.1
1070.915	471.72
1071.519	-660.81
1072.123	-367.95
1072.728	592.55
1073.333	297.64
1073.939	-232.79
1074.545	-556.36
1075.152	475.81
1075.759	191.14
1076.366	-763.21
1076.974	-312.66
1077.582	307.88
1078.191	780.96
1078.8	-509.26
1079.41	-886.09
1080.02	271.01
1080.63	285.35
1081.241	-197.97
1081.852	-836.94
1082.464	328.36
1083.076	408.23
1083.689	-607.56
1084.302	-513.36
1084.915	733.86
1085.529	518.82
1086.144	-646.48
1086.759	-476.49
1087.374	162.47
1087.99	256.68
1088.606	-697.67
1089.222	-554.32
1089.839	604.83
1090.457	264.87
1091.075	-531.79
1091.693	-877.9
1092.312	580.26
1092.931	836.25
1093.551	-660.81
1094.171	-265.55
1094.792	481.96
1095.413	117.42
1096.034	-523.6
1096.656	-546.12
1097.278	522.91
1097.901	273.06
1098.524	-689.48
1099.148	-419.15
1099.772	918.17
1100.397	383.65
1101.022	-755.02
1101.647	-611.66
1102.273	445.09
1102.899	645.79
1103.526	-951.62
1104.153	-388.43
1104.781	713.38
1105.409	756.38
1106.038	-703.82
1106.667	-832.84
1107.296	273.06
1107.926	256.68
1108.556	-210.26
1109.187	-507.21
1109.818	443.04
1110.45	717.47
1111.082	-503.12
1111.715	-558.41
1112.348	404.13
1112.981	240.3
1113.615	-337.23
1114.25	-480.59
1114.885	203.43
1115.52	146.09
1116.156	-812.36
1116.792	-582.99
1117.428	557.73
1118.066	113.32
1118.703	-353.62
1119.341	-574.8
1119.98	631.46
1120.618	768.67
1121.258	-736.59
1121.898	-732.49
1122.538	377.51
1123.179	-83.28
1123.82	-523.6
1124.461	-474.45
1125.103	613.03
1125.746	193.19
1126.389	-458.06
1127.032	-750.92
1127.676	490.15
1128.32	877.21
1128.965	-464.21
1129.61	-398.67
1130.256	232.1
1130.902	740
1131.549	-632.14
1132.196	-578.89
1132.844	666.27
1133.491	641.7
1134.14	-501.07
1134.789	-615.76
1135.438	1008.28
1136.088	92.84
1136.738	-730.44
1137.389	-781.64
1138.04	529.06
1138.692	973.47
1139.344	-597.32
1139.996	-619.85
1140.649	416.42
1141.303	572.07
1141.957	-484.69
1142.611	-533.84
1143.266	426.66
1143.921	361.13
1144.577	-582.99
1145.233	-626
1145.89	199.34
1146.547	613.03
1147.205	-744.78
1147.863	-513.36
1148.521	434.85
1149.18	678.56
1149.84	-771.4
1150.5	-652.62
1151.16	346.79
1151.821	651.94
1152.482	-591.18
1153.144	-99.67
1153.806	424.61
1154.469	596.64
1155.132	-771.4
1155.796	-451.92
1156.46	617.12
1157.124	993.95
1157.789	-656.72
1158.455	-636.24
1159.121	381.6
1159.787	78.51
1160.454	-509.26
1161.121	-492.88
1161.789	250.53
1162.457	570.02
1163.126	-566.6
1163.795	-499.02
1164.465	408.23
1165.135	232.1
1165.806	-568.65
1166.477	-341.33
1167.148	-367.95
1167.82	580.26
1168.493	-810.31
1169.166	-415.05
1169.839	19.11
1170.513	449.19
1171.187	-752.97
1171.862	-621.9
1172.537	295.59
1173.213	486.05
1173.889	-681.29
1174.566	-638.28
1175.243	672.42
1175.921	258.73
1176.599	-492.88
1177.278	-384.34
1177.957	-27.99
1178.636	828.06
1179.316	-374.1
1179.997	-826.7
1180.678	574.11
1181.359	842.4
1182.041	-748.87
1182.723	-652.62
1183.406	686.75
1184.089	156.33
1184.773	-787.79
1185.457	-804.17
1186.142	178.86
1186.827	1274.52
1187.513	-720.2
1188.199	-240.98
1188.886	197.29
1189.573	324.26
1190.26	-488.78
1190.948	-644.43
1191.637	80.55
1192.326	201.38
1193.015	-718.15
1193.705	-791.88
1194.396	39.59
1195.087	328.36
1195.778	-519.5
1196.47	-617.8
1197.162	365.22
1197.855	623.27
1198.548	-619.85
1199.242	-922.95
1199.936	432.8
1200.631	592.55
1201.326	-828.74
1202.022	-644.43
1202.718	760.48
1203.415	412.32
1204.112	-951.62
1204.81	-587.08
1205.508	107.18
1206.206	1041.05
1206.905	-656.72
1207.605	-742.73
1208.305	305.83
1209.005	457.38
1209.706	-804.17
1210.408	-691.53
1211.11	228.01
1211.812	477.86
1212.515	-517.45
1213.218	-568.65
1213.922	354.98
1214.627	287.4
1215.331	-611.66
1216.037	-578.89
1216.743	-25.94
1217.449	426.66
1218.156	-517.45
1218.863	-519.5
1219.571	264.87
1220.279	815.77
1220.988	-728.39
1221.697	-617.8
1222.406	678.56
1223.117	121.51
1223.827	-499.02
1224.538	-632.14
1225.25	326.31
1225.962	412.32
1226.675	-976.2
1227.388	-580.94
1228.101	365.22
1228.815	86.7
1229.53	-470.35
1230.245	-496.97
1230.961	484
1231.677	289.45
1232.393	-591.18
1233.11	-593.23
1233.828	979.61
1234.546	481.96
1235.264	-566.6
1235.983	-318.8
1236.702	1071.77
1237.422	443.04
1238.143	-296.27
1238.864	-744.78
1239.585	656.03
1240.307	-265.55
1241.029	-828.74
1241.752	-378.19
1242.476	660.13
1243.2	813.73
1243.924	-570.7
1244.649	-478.54
1245.374	729.76
1246.1	813.73
1246.826	-802.12
1247.553	-628.04
1248.28	455.33
1249.008	488.1
1249.737	-728.39
1250.465	-435.53
1251.195	402.08
1251.925	797.34
1252.655	-669
1253.386	-337.23
1254.117	158.38
1254.849	127.66
1255.581	-632.14
1256.314	-472.4
1257.047	735.9
1257.781	504.48
1258.515	-574.8
1259.25	-195.92
1259.985	459.43
1260.721	387.75
1261.457	-451.92
1262.194	-902.47
1262.931	268.97
1263.669	801.44
1264.407	-410.96
1265.146	-795.98
1265.885	443.04
1266.625	320.17
1267.365	-527.69
1268.106	-597.32
1268.847	451.24
1269.589	121.51
1270.331	-394.58
1271.074	-515.41
1271.817	369.32
1272.561	379.56
1273.305	-337.23
1274.05	-433.49
1274.795	412.32
1275.541	428.71
1276.287	-861.51
1277.034	-771.4
1277.781	133.8
1278.529	637.6
1279.277	-900.42
1280.026	-783.69
1280.775	760.48
1281.525	-458.06
1282.275	-884.04
1283.026	-255.31
1283.777	387.75
1284.529	379.56
1285.281	-496.97
1286.034	-834.89
1286.788	776.86
1287.541	393.89
1288.296	-886.09
1289.051	-398.67
1289.806	424.61
1290.562	570.02
1291.318	-699.72
1292.075	-539.98
1292.832	844.45
1293.59	869.02
1294.349	-664.91
1295.108	-603.47
1295.867	907.93
1296.627	553.63
1297.387	-750.92
1298.148	-474.45
1298.91	334.5
1299.672	172.71
1300.434	-664.91
1301.197	-763.21
1301.961	1284.76
1302.725	318.12
1303.489	-533.84
1304.254	-599.37
1305.02	375.46
1305.786	778.91
1306.552	-931.14
1307.319	-896.33
1308.087	846.49
1308.855	828.06
1309.624	-712.01
1310.393	-607.56
1311.162	-126.29
1311.933	656.03
1312.703	-623.95
1313.474	-345.42
1314.246	322.21
1315.018	604.83
1315.791	-263.51
1316.564	-730.44
1317.338	764.58
1318.112	281.25
1318.887	-785.74
1319.662	-501.07
1320.438	455.33
1321.214	146.09
1321.991	-402.77
1322.769	-738.63
1323.546	443.04
1324.325	64.17
1325.104	-757.07
1325.883	-492.88
1326.663	-54.61
1327.444	430.76
1328.224	-669
1329.006	-482.64
1329.788	307.88
1330.571	416.42
1331.354	-267.6
1332.137	-707.91
1332.921	776.86
1333.706	-36.18
1334.491	-351.57
1335.277	-548.17
1336.063	82.6
1336.849	223.91
1337.637	-761.16
1338.424	-738.63
1339.213	928.41
1340.001	799.39
1340.791	-836.94
1341.581	-357.71
1342.371	584.35
1343.162	309.93
1343.953	-632.14
1344.745	-488.78
1345.537	598.69
1346.33	572.07
1347.124	-638.28
1347.918	-376.14
1348.712	830.11
1349.507	533.15
1350.303	-722.25
1351.099	-515.41
1351.896	111.27
1352.693	-261.46
1353.49	-607.56
1354.289	-554.32
1355.087	551.59
1355.887	801.44
1356.686	-556.36
1357.487	-677.19
1358.288	80.55
1359.089	266.92
1359.891	-200.02
1360.693	-566.6
1361.496	-73.04
1362.3	373.41
1363.104	-654.67
1363.908	-640.33
1364.713	891.55
1365.519	907.93
1366.325	-644.43
1367.131	-775.5
1367.939	260.77
1368.746	836.25
1369.555	-976.2
1370.363	-525.65
1371.173	889.5
1371.982	1286.81
1372.793	-646.48
1373.604	-955.72
1374.415	625.31
1375.227	776.86
1376.039	-720.2
1376.852	-748.87
1377.666	1055.39
1378.48	404.13
1379.295	-781.64
1380.11	-820.55
1380.925	31.4
1381.742	934.56
1382.558	-580.94
1383.376	-685.39
1384.193	459.43
1385.012	236.2
1385.831	-607.56
1386.65	-636.24
1387.47	170.66
1388.29	228.01
1389.111	-578.89
1389.933	-857.42
1390.755	719.52
1391.578	324.26
1392.401	-845.13
1393.225	-568.65
1394.049	885.41
1394.873	268.97
1395.699	-636.24
1396.525	-476.49
1397.351	768.67
1398.178	-42.32
1399.005	-521.55
1399.833	-1049.93
1400.662	477.86
1401.491	977.56
1402.321	-640.33
1403.151	-607.56
1403.981	342.69
1404.813	594.59
1405.644	-492.88
1406.477	-685.39
1407.309	189.1
1408.143	1086.11
1408.977	-587.08
1409.811	-623.95
1410.646	907.93
1411.482	801.44
1412.318	-513.36
1413.155	-636.24
1413.992	664.22
1414.829	72.36
1415.668	-623.95
1416.506	-326.99
1417.346	752.29
1418.186	334.5
1419.026	-673.1
1419.867	-789.83
1420.709	754.34
1421.551	633.51
1422.393	-894.28
1423.236	-410.96
1424.08	514.72
1424.924	443.04
1425.769	-718.15
1426.614	-709.96
1427.46	543.39
1428.307	187.05
1429.154	-804.17
1430.001	-689.48
1430.849	379.56
1431.698	301.73
1432.547	-863.56
1433.397	-984.39
1434.247	559.78
1435.098	926.36
1435.949	-548.17
1436.801	-632.14
1437.653	70.31
1438.506	821.92
1439.36	-884.04
1440.214	-763.21
1441.069	578.21
1441.924	359.08
1442.78	-650.57
1443.636	-814.41
1444.493	297.64
1445.35	404.13
1446.208	-531.79
1447.067	-709.96
1447.926	441
1448.785	828.06
1449.645	-673.1
1450.506	-714.06
1451.367	393.89
1452.229	180.9
1453.091	-767.31
1453.954	-349.52
1454.818	256.68
1455.682	441
1456.546	-605.52
1457.412	-898.38
1458.277	809.63
1459.143	332.45
1460.01	-402.77
1460.878	-752.97
1461.745	402.08
1462.614	105.13
1463.483	-812.36
1464.352	-410.96
1465.223	645.79
1466.093	608.93
1466.964	-767.31
1467.836	-836.94
1468.709	694.94
1469.581	344.74
1470.455	-499.02
1471.329	-746.83
1472.203	92.84
1473.079	131.75
1473.954	-185.68
1474.831	-664.91
1475.707	60.07
1476.585	244.39
1477.463	-652.62
1478.341	-607.56
1479.22	-89.43
1480.1	375.46
1480.98	-886.09
1481.861	-699.72
1482.742	508.58
1483.624	715.42
1484.506	-415.05
1485.389	-599.37
1486.273	221.86
1487.157	344.74
1488.041	-740.68
1488.926	-853.32
1489.812	594.59
1490.699	367.27
1491.585	-632.14
1492.473	-636.24
1493.361	-75.09
1494.249	156.33
1495.139	-427.34
1496.028	-558.41
1496.919	-13.65
1497.809	457.38
1498.701	-714.06
1499.593	-656.72
1500.485	254.63
1501.378	817.82
1502.272	-300.37
1503.166	-574.8
1504.061	795.29
1504.956	498.34
1505.852	-576.84
1506.749	-759.11
1507.646	555.68
1508.543	389.8
1509.442	-761.16
1510.34	-17.75
1511.24	1051.29
1512.14	293.54
1513.04	-705.87
1513.941	-867.66
1514.843	1217.18
1515.745	-46.42
1516.648	-607.56
1517.551	-795.98
1518.455	-91.48
1519.359	-271.7
1520.264	-814.41
1521.17	-802.12
1522.076	256.68
1522.983	565.92
1523.89	-834.89
1524.798	-476.49
1525.706	350.89
1526.615	1309.33
1527.525	-804.17
1528.435	-580.94
1529.346	572.07
1530.257	146.09
1531.169	-372.05
1532.081	-742.73
1532.994	1026.72
1533.908	244.39
1534.822	-623.95
1535.737	-601.42
1536.652	387.75
1537.568	326.31
1538.484	-673.1
1539.401	-1074.5
1540.319	834.21
1541.237	-48.47
1542.156	-849.22
1543.075	-742.73
1543.995	1069.72
1544.916	1182.36
1545.837	-843.08
1546.758	-757.07
1547.68	678.56
1548.603	664.22
1549.527	-423.25
1550.451	-785.74
1551.375	559.78
1552.3	780.96
1553.226	-888.14
1554.152	-750.92
1555.079	854.69
1556.006	348.84
1556.934	-513.36
1557.863	-519.5
1558.792	885.41
1559.722	201.38
1560.652	-470.35
1561.583	-927.05
1562.514	10.92
1563.446	252.58
1564.379	-1049.93
1565.312	-507.21
1566.246	748.19
1567.18	348.84
1568.115	-564.56
1569.051	-701.77
1569.987	789.15
1570.924	998.04
1571.861	-795.98
1572.799	-537.93
1573.737	600.74
1574.676	420.52
1575.616	-503.12
1576.556	-691.53
1577.497	64.17
1578.438	121.51
1579.38	-644.43
1580.323	-617.8
1581.266	477.86
1582.21	729.76
1583.154	-746.83
1584.099	-816.46
1585.044	606.88
1585.99	703.14
1586.937	-294.22
1587.884	-572.75
1588.832	285.35
1589.78	948.89
1590.729	-714.06
1591.679	-417.1
1592.629	406.18
1593.58	506.53
1594.531	-515.41
1595.483	-546.12
1596.435	203.43
1597.388	58.03
1598.342	-322.9
1599.296	-464.21
1600.251	617.12
1601.207	686.75
1602.163	-619.85
1603.119	-738.63
1604.077	813.73
1605.034	850.59
1605.993	-548.17
1606.952	-34.13
1607.911	318.12
1608.872	430.76
1609.832	-744.78
1610.794	-845.13
1611.756	627.36
1612.718	535.2
1613.681	-277.84
1614.645	-621.9
1615.609	803.49
1616.574	334.5
1617.54	-128.34
1618.506	-646.48
1619.472	719.52
1620.44	752.29
1621.408	-34.13
1622.376	-482.64
1623.345	477.86
1624.315	826.01
1625.285	-499.02
1626.256	-453.97
1627.227	535.2
1628.199	-34.13
1629.172	-437.58
1630.145	-312.66
1631.119	498.34
1632.094	950.94
1633.069	-599.37
1634.044	-378.19
1635.02	228.01
1635.997	752.29
1636.975	-560.46
1637.953	-716.11
1638.931	1002.14
1639.911	60.07
1640.89	-779.59
1641.871	-597.32
1642.852	592.55
1643.833	471.72
1644.816	-730.44
1645.798	-927.05
1646.782	895.64
1647.766	199.34
1648.75	-691.53
1649.736	-687.43
1650.721	19.11
1651.708	309.93
1652.695	-730.44
1653.682	-447.82
1654.671	475.81
1655.66	604.83
1656.649	-683.34
1657.639	-582.99
1658.63	-38.23
1659.621	213.67
1660.613	-861.51
1661.605	-820.55
1662.598	260.77
1663.592	281.25
1664.586	-1000.77
1665.581	-705.87
1666.576	336.55
1667.572	369.32
1668.569	-595.28
1669.566	-728.39
1670.564	514.72
1671.563	793.25
1672.562	-707.91
1673.562	-302.42
1674.562	395.94
1675.563	473.76
1676.564	-437.58
1677.566	-636.24
1678.569	883.36
1679.572	-318.8
1680.576	-556.36
1681.581	-664.91
1682.586	162.47
1683.592	443.04
1684.598	-597.32
1685.605	-476.49
1686.613	578.21
1687.621	254.63
1688.63	-501.07
1689.639	-451.92
1690.649	295.59
1691.66	311.97
1692.671	-468.3
1693.683	-763.21
1694.696	62.12
1695.709	334.5
1696.722	-714.06
1697.737	-589.13
1698.752	139.94
1699.767	549.54
1700.783	-632.14
1701.8	-378.19
1702.818	375.46
1703.836	-27.99
1704.854	-853.32
1705.873	-699.72
1706.893	244.39
1707.914	359.08
1708.935	-683.34
1709.956	-623.95
1710.979	277.16
1712.002	395.94
1713.025	-574.8
1714.049	-566.6
1715.074	537.25
1716.099	481.96
1717.125	-791.88
1718.152	-750.92
1719.179	121.51
1720.207	649.89
1721.235	-46.42
1722.265	-193.87
1723.294	326.31
1724.325	238.25
1725.355	-380.24
1726.387	-507.21
1727.419	416.42
1728.452	649.89
1729.485	-394.58
1730.519	-820.55
1731.554	31.4
1732.589	309.93
1733.625	-763.21
1734.662	-621.9
1735.699	-52.56
1736.736	647.84
1737.775	-691.53
1738.814	-632.14
1739.853	117.42
1740.894	105.13
1741.934	-525.65
1742.976	-746.83
1744.018	524.96
1745.061	344.74
1746.104	-714.06
1747.148	-763.21
1748.193	408.23
1749.238	348.84
1750.284	-542.03
1751.33	-757.07
1752.377	428.71
1753.425	1006.24
1754.473	-572.75
1755.522	-607.56
1756.572	846.49
1757.622	510.63
1758.673	-845.13
1759.724	-574.8
1760.776	797.34
1761.829	758.43
1762.882	-320.85
1763.936	-787.79
1764.991	170.66
1766.046	1055.39
1767.102	-486.73
1768.158	-789.83
1769.215	498.34
1770.273	514.72
1771.331	-537.93
1772.39	-722.25
1773.45	441
1774.51	576.16
1775.571	-759.11
1776.632	-140.63
1777.694	336.55
1778.757	529.06
1779.82	-351.57
1780.884	-550.22
1781.949	203.43
1783.014	475.81
1784.08	-910.66
1785.147	-605.52
1786.214	240.3
1787.282	234.15
1788.35	-433.49
1789.419	-490.83
1790.489	658.08
1791.559	463.52
1792.63	-640.33
1793.702	-435.53
1794.774	281.25
1795.847	582.31
1796.92	-406.86
1797.994	-513.36
1799.069	600.74
1800.144	1245.85
1801.22	-658.76
1802.297	-378.19
1803.374	-13.65
1804.452	500.39
1805.531	-621.9
1806.61	-380.24
1807.69	629.41
1808.77	-73.04
1809.851	-474.45
1810.933	-812.36
1812.015	649.89
1813.098	84.65
1814.182	-570.7
1815.266	-533.84
1816.351	287.4
1817.437	357.03
1818.523	-480.59
1819.61	-589.13
1820.697	346.79
1821.785	1090.2
1822.874	-523.6
1823.963	-632.14
1825.053	221.86
1826.144	547.49
1827.235	-529.74
1828.327	-582.99
1829.42	303.78
1830.513	-38.23
1831.607	-675.15
1832.701	-697.67
1833.796	367.27
1834.892	746.14
1835.989	-808.26
1837.086	-752.97
1838.183	404.13
1839.282	408.23
1840.381	-658.76
1841.48	-677.19
1842.581	400.04
1843.682	950.94
1844.783	-265.55
1845.885	-423.25
1846.988	653.98
1848.092	447.14
1849.196	-466.25
1850.301	-398.67
1851.406	96.94
1852.512	1165.98
1853.619	-580.94
1854.726	-746.83
1855.834	162.47
1856.943	770.72
1858.052	-662.86
1859.162	-595.28
1860.273	371.37
1861.384	780.96
1862.496	-554.32
1863.608	-707.91
1864.721	426.66
1865.835	205.48
1866.95	-759.11
1868.065	-648.52
1869.181	236.2
1870.297	787.1
1871.414	-230.74
1872.532	-845.13
1873.65	266.92
1874.769	223.91
1875.889	-730.44
1877.009	-243.03
1878.13	328.36
1879.252	830.11
1880.374	-484.69
1881.497	-556.36
1882.62	369.32
1883.745	203.43
1884.87	-806.22
1885.995	-816.46
1887.121	230.06
1888.248	8.87
1889.376	-738.63
1890.504	-693.58
1891.632	441
1892.762	107.18
1893.892	-658.76
1895.023	-374.1
1896.154	137.9
1897.286	391.84
1898.419	-687.43
1899.552	-580.94
1900.686	588.45
1901.821	469.67
1902.956	-656.72
1904.092	-570.7
1905.229	842.4
1906.366	604.83
1907.504	-673.1
1908.643	-613.71
1909.782	555.68
