Data from led6500K_USB4H112691__3__12-40-31-176.txt Node

Date: Tue Dec 17 12:40:31 CET 2024
User: Etudiants TP
Spectrometer: USB4H11269
Trigger mode: 4
Integration Time (sec): 1.000000E0
Scans to average: 1
Electric dark correction enabled: true
Nonlinearity correction enabled: false
Boxcar width: 0
XAxis mode: Wavelengths
Number of Pixels in Spectrum: 3648
>>>>>Begin Spectral Data<<<<<
286.377	-1669.95
286.631	-1669.95
286.884	-1669.95
287.138	-1649.47
287.391	-1608.51
287.644	-893.77
287.896	-609.1
288.149	685.22
288.401	447.65
288.653	-502.61
288.905	-467.79
289.157	840.86
289.409	361.64
289.661	-432.97
289.912	-727.88
290.163	509.09
290.414	789.66
290.665	-666.44
290.916	-584.52
291.166	580.77
291.417	1103
291.667	-617.29
291.917	-187.22
292.167	466.08
292.417	365.73
292.666	-736.07
292.916	-592.72
293.165	468.13
293.414	765.09
293.663	-877.38
293.912	-729.93
294.16	709.79
294.408	730.27
294.657	-691.02
294.905	-404.3
295.153	660.64
295.4	617.63
295.648	-791.37
295.895	-736.07
296.143	271.53
296.39	859.29
296.637	-607.05
296.884	-686.92
297.13	670.88
297.377	941.21
297.623	-533.33
297.869	-346.96
298.115	769.18
298.361	656.54
298.606	-762.7
298.852	-531.28
299.097	613.54
299.342	1084.57
299.587	-338.77
299.832	-518.99
300.077	756.9
300.322	697.5
300.566	-703.31
300.81	-463.69
301.054	611.49
301.298	842.91
301.542	-265.04
301.785	-396.11
302.029	898.2
302.272	756.9
302.515	-740.17
302.758	-547.66
303.001	779.42
303.244	873.63
303.486	-527.18
303.729	-869.19
303.971	1057.95
304.213	793.76
304.455	-887.62
304.696	-355.15
304.938	402.6
305.179	763.04
305.421	-478.03
305.662	-410.45
305.903	445.6
306.143	402.6
306.384	-508.75
306.625	-498.51
306.865	423.08
307.105	335.01
307.345	-375.63
307.585	-424.78
307.825	216.23
308.064	834.72
308.304	-566.09
308.543	-838.47
308.782	619.68
309.021	949.4
309.26	-269.14
309.499	-535.37
309.737	926.88
309.976	717.98
310.214	-686.92
310.452	-637.77
310.69	1111.19
310.928	136.36
311.165	-650.06
311.403	-605
311.64	1008.8
311.878	697.5
312.115	-527.18
312.351	-392.02
312.588	488.61
312.825	959.64
313.061	-854.86
313.298	-2.9
313.534	261.29
313.77	804
314.006	-637.77
314.241	-648.01
314.477	732.32
314.713	1209.5
314.948	-514.89
315.183	324.77
315.418	988.32
315.653	570.53
315.888	-656.2
316.122	-351.06
316.357	261.29
316.591	853.15
316.825	-570.19
317.059	-600.91
317.293	1064.09
317.527	521.38
317.76	-645.96
317.994	-418.64
318.227	722.08
318.46	1162.39
318.693	-674.64
318.926	-443.21
319.159	177.32
319.391	615.59
319.624	-777.03
319.856	-508.75
320.088	939.16
320.321	685.22
320.552	-312.14
320.784	-611.15
321.016	885.92
321.247	74.92
321.479	-406.35
321.71	-351.06
321.941	-125.78
322.172	1131.67
322.403	-664.4
322.633	-416.59
322.864	828.57
323.094	205.99
323.325	-64.34
323.555	-598.86
323.785	337.06
324.014	365.73
324.244	-453.45
324.474	-289.62
324.703	908.44
324.933	947.36
325.162	-455.5
325.391	-803.66
325.62	-43.86
325.848	840.86
326.077	-535.37
326.306	-351.06
326.534	791.71
326.762	1021.08
326.99	-570.19
327.218	-250.71
327.446	883.87
327.674	23.72
327.901	-615.24
328.129	-699.21
328.356	840.86
328.583	236.71
328.81	-674.64
329.037	-412.5
329.264	517.28
329.491	873.63
329.717	-412.5
329.944	-672.59
330.17	414.88
330.396	271.53
330.622	-670.54
330.848	-334.67
331.074	521.38
331.299	1477.78
331.525	-666.44
331.75	-609.1
331.975	961.69
332.201	246.95
332.426	-918.34
332.65	-656.2
332.875	-68.44
333.1	449.7
333.324	-641.87
333.549	-566.09
333.773	425.12
333.997	574.63
334.221	-631.63
334.445	-678.73
334.668	644.26
334.892	1129.63
335.116	-400.21
335.339	-617.29
335.562	-29.52
335.785	556.19
336.008	-213.84
336.231	-633.68
336.454	-15.19
336.676	924.83
336.899	-441.17
337.121	-244.56
337.343	113.83
337.566	646.3
337.788	-559.95
338.009	-674.64
338.231	128.17
338.453	500.9
338.674	3296.38
338.896	-410.45
339.117	50.35
339.338	1074.33
339.559	-701.26
339.78	-555.85
340.001	126.12
340.222	890.01
340.442	-555.85
340.663	-256.85
340.883	787.61
341.103	490.66
341.323	-549.71
341.543	-349.01
341.763	822.43
341.983	320.68
342.202	-746.31
342.422	-705.35
342.641	1170.58
342.861	308.39
343.08	-271.19
343.299	-729.93
343.518	570.53
343.736	644.26
343.955	-588.62
344.174	-613.2
344.392	873.63
344.61	91.31
344.829	-707.4
345.047	-600.91
345.265	615.59
345.483	1021.08
345.7	-619.34
345.918	-88.92
346.136	136.36
346.353	859.29
346.57	-746.31
346.788	-688.97
347.005	423.08
347.222	107.69
347.438	-17.24
347.655	-564.04
347.872	177.32
348.088	1166.49
348.305	-351.06
348.521	-650.06
348.737	222.38
348.953	926.88
349.169	-183.12
349.385	-432.97
349.601	443.56
349.817	-66.39
350.032	-170.83
350.248	-252.75
350.463	1205.4
350.678	-387.92
350.893	-617.29
351.108	-678.73
351.323	193.7
351.538	863.39
351.753	-662.35
351.967	-576.33
352.182	881.82
352.396	259.24
352.61	-703.31
352.824	-559.95
353.038	693.41
353.252	863.39
353.466	-418.64
353.68	-666.44
353.894	406.69
354.107	191.66
354.32	-387.92
354.534	-617.29
354.747	701.6
354.96	19.63
355.173	-328.53
355.386	-781.13
355.599	537.76
355.811	410.79
356.024	-621.39
356.236	-338.77
356.449	230.57
356.661	386.21
356.873	-754.51
357.085	-842.57
357.297	666.78
357.509	685.22
357.721	-562
357.933	-586.57
358.144	361.64
358.356	181.42
358.567	-314.19
358.778	-725.83
358.989	867.49
359.2	271.53
359.411	-426.83
359.622	-346.96
359.833	482.47
360.044	388.26
360.254	-566.09
360.465	-772.94
360.675	496.8
360.885	443.56
361.096	-658.25
361.306	-486.22
361.516	314.53
361.726	511.14
361.935	-799.56
362.145	-564.04
362.355	529.57
362.564	515.23
362.774	-768.84
362.983	-791.37
363.192	955.55
363.401	191.66
363.61	-617.29
363.819	-371.54
364.028	488.61
364.237	914.59
364.445	-535.37
364.654	-461.65
364.862	480.42
365.071	162.98
365.279	-367.44
365.487	-623.44
365.695	689.31
365.903	453.8
366.111	-703.31
366.319	-533.33
366.527	597.15
366.734	304.29
366.942	-426.83
367.149	-748.36
367.357	-514.89
367.564	1119.39
367.771	-449.36
367.978	-641.87
368.185	185.51
368.392	294.05
368.599	-346.96
368.806	-637.77
369.013	1.19
369.219	556.19
369.426	-869.19
369.632	-293.71
369.838	1125.53
370.044	529.57
370.251	-529.23
370.457	-582.48
370.663	1000.6
370.868	447.65
371.074	-545.61
371.28	-609.1
371.485	-138.07
371.691	775.33
371.896	-682.83
372.102	-656.2
372.307	1111.19
372.512	834.72
372.717	-650.06
372.922	-213.84
373.127	107.69
373.332	425.12
373.537	-498.51
373.741	-510.8
373.946	603.3
374.151	279.72
374.355	-715.59
374.559	-494.41
374.764	296.1
374.968	-377.68
375.172	-578.38
375.376	-224.08
375.58	572.58
375.784	72.87
375.987	-736.07
376.191	-564.04
376.395	144.55
376.598	298.15
376.802	-602.96
377.005	-238.42
377.208	177.32
377.412	146.6
377.615	-779.08
377.818	-621.39
378.021	212.14
378.224	-41.81
378.426	-510.8
378.629	-738.12
378.832	660.64
379.034	668.83
379.237	-922.44
379.439	-838.47
379.642	902.3
379.844	533.67
380.046	-924.49
380.248	-719.69
380.45	-125.78
380.652	-150.36
380.854	-541.52
381.056	-564.04
381.258	300.2
381.459	427.17
381.661	-797.51
381.862	-322.38
382.064	74.92
382.265	201.9
382.467	-705.35
382.668	-576.33
382.869	750.75
383.07	541.86
383.271	-490.32
383.472	-676.68
383.673	664.74
383.874	412.84
384.074	-465.74
384.275	-809.8
384.476	627.87
384.676	1080.47
384.876	-774.99
385.077	-625.48
385.277	674.98
385.477	877.73
385.677	-731.98
385.878	-478.03
386.078	300.2
386.278	365.73
386.477	-254.8
386.677	-328.53
386.877	595.11
387.077	668.83
387.276	-338.77
387.476	-539.47
387.675	455.84
387.875	1074.33
388.074	-695.11
388.273	-537.42
388.472	775.33
388.671	-195.41
388.87	-680.78
389.069	-133.97
389.268	-148.31
389.467	132.26
389.666	-768.84
389.865	-201.55
390.063	599.2
390.262	715.94
390.461	-680.78
390.659	-717.64
390.857	717.98
391.056	627.87
391.254	-717.64
391.452	-592.72
391.65	726.18
391.849	584.87
392.047	-400.21
392.245	-226.13
392.442	314.53
392.64	562.34
392.838	-277.33
393.036	-486.22
393.233	363.69
393.431	349.35
393.629	-910.15
393.826	-531.28
394.023	156.84
394.221	-238.42
394.418	-383.82
394.615	-269.14
394.812	-109.4
395.01	734.37
395.207	-559.95
395.404	-688.97
395.601	982.17
395.797	449.7
395.994	-684.87
396.191	-574.28
396.388	152.74
396.584	603.3
396.781	-418.64
396.977	38.06
397.174	578.72
397.37	44.2
397.567	-435.02
397.763	-625.48
397.959	406.69
398.155	283.81
398.352	-486.22
398.548	-275.28
398.744	568.48
398.94	423.08
399.136	-725.83
399.331	-217.94
399.527	474.28
399.723	548
399.919	-322.38
400.114	-457.55
400.31	292.01
400.505	556.19
400.701	-432.97
400.896	-650.06
401.092	195.75
401.287	382.12
401.482	-768.84
401.678	-408.4
401.873	631.97
402.068	701.6
402.263	-371.54
402.458	-400.21
402.653	111.78
402.848	523.43
403.043	-371.54
403.237	-641.87
403.432	7.34
403.627	-215.89
403.822	-858.95
404.016	-518.99
404.211	128.17
404.405	591.01
404.6	-277.33
404.794	-265.04
404.989	484.52
405.183	201.9
405.377	-256.85
405.571	-211.79
405.766	584.87
405.96	316.58
406.154	-592.72
406.348	-455.5
406.542	521.38
406.736	498.85
406.93	-637.77
407.124	-373.58
407.318	220.33
407.511	447.65
407.705	-441.17
407.899	-566.09
408.092	595.11
408.286	367.78
408.48	-756.55
408.673	-641.87
408.867	42.15
409.06	427.17
409.253	-346.96
409.447	-371.54
409.64	629.92
409.833	416.93
410.026	-385.87
410.22	-285.52
410.413	701.6
410.606	431.27
410.799	-674.64
410.992	-529.23
411.185	375.97
411.378	959.64
411.571	-478.03
411.764	-389.97
411.956	580.77
412.149	457.89
412.342	-361.3
412.534	-443.21
412.727	627.87
412.92	367.78
413.112	-475.98
413.305	-154.45
413.497	754.85
413.69	634.02
413.882	-412.5
414.075	-322.38
414.267	513.19
414.459	316.58
414.652	-666.44
414.844	-590.67
415.036	373.92
415.228	791.71
415.42	-160.59
415.612	-600.91
415.804	961.69
415.997	480.42
416.188	-351.06
416.38	-336.72
416.572	169.13
416.764	625.83
416.956	-512.85
417.148	-568.14
417.34	285.86
417.531	-119.64
417.723	-482.13
417.915	-463.69
418.107	193.7
418.298	576.67
418.49	-457.55
418.681	-349.01
418.873	824.48
419.064	439.46
419.256	-322.38
419.447	-502.61
419.639	560.29
419.83	795.81
420.021	-428.88
420.213	-566.09
420.404	341.16
420.595	515.23
420.786	-310.1
420.978	-392.02
421.169	695.46
421.36	265.38
421.551	-441.17
421.742	-510.8
421.933	939.16
422.124	689.31
422.315	-396.11
422.506	-371.54
422.697	556.19
422.888	220.33
423.079	-174.93
423.27	-453.45
423.461	357.54
423.652	203.94
423.842	-531.28
424.033	-355.15
424.224	603.3
424.415	951.45
424.605	-338.77
424.796	-465.74
424.987	511.14
425.177	459.94
425.368	-752.46
425.558	-678.73
425.749	271.53
425.939	281.77
426.13	-123.73
426.32	-273.23
426.511	197.8
426.701	181.42
426.892	-371.54
427.082	-432.97
427.272	103.59
427.463	386.21
427.653	-437.07
427.843	-297.81
428.034	976.03
428.224	591.01
428.414	-623.44
428.604	-346.96
428.795	523.43
428.985	570.53
429.175	-131.92
429.365	-191.31
429.555	500.9
429.745	361.64
429.935	-338.77
430.126	-250.71
430.316	554.15
430.506	689.31
430.696	-361.3
430.886	-207.7
431.076	533.67
431.266	304.29
431.456	-158.55
431.645	-381.78
431.835	316.58
432.025	533.67
432.215	-523.09
432.405	-174.93
432.595	603.3
432.785	378.02
432.975	-473.93
433.164	-547.66
433.354	162.98
433.544	509.09
433.734	-537.42
433.923	-213.84
434.113	369.83
434.303	322.73
434.493	-254.8
434.682	-510.8
434.872	658.59
435.062	21.67
435.251	-353.1
435.441	-394.06
435.631	771.23
435.82	246.95
436.01	-590.67
436.2	-285.52
436.389	267.43
436.579	873.63
436.768	-189.27
436.958	-162.64
437.147	373.92
437.337	664.74
437.527	-295.76
437.716	-357.2
437.906	793.76
438.095	296.1
438.285	-437.07
438.474	-271.19
438.664	732.32
438.853	488.61
439.043	-176.98
439.232	-609.1
439.422	621.73
439.611	572.58
439.8	-437.07
439.99	-93.01
440.179	640.16
440.369	967.84
440.558	-596.81
440.748	-297.81
440.937	359.59
441.126	195.75
441.316	-174.93
441.505	-398.16
441.695	619.68
441.884	1055.9
442.073	-260.95
442.263	-375.63
442.452	439.46
442.642	808.09
442.831	-265.04
443.02	-86.87
443.21	1025.18
443.399	1442.96
443.588	-256.85
443.778	-219.99
443.967	1168.54
444.156	763.04
444.346	-453.45
444.535	-385.87
444.725	1115.29
444.914	621.73
445.103	-293.71
445.293	-90.96
445.482	1117.34
445.671	568.48
445.861	-123.73
446.05	95.4
446.239	877.73
446.429	382.12
446.618	-201.55
446.807	87.21
446.997	791.71
447.186	840.86
447.376	-52.05
447.565	9.39
447.754	1129.63
447.944	1154.2
448.133	-47.96
448.322	-279.38
448.512	545.95
448.701	1326.23
448.891	-74.58
449.08	36.01
449.269	193.7
449.459	582.82
449.648	-97.11
449.838	-84.82
450.027	595.11
450.217	468.13
450.406	-193.36
450.595	109.74
450.785	982.17
450.974	1000.6
451.164	-148.31
451.353	38.06
451.543	1021.08
451.732	1299.61
451.922	-125.78
452.111	46.25
452.301	513.19
452.49	386.21
452.68	-330.58
452.869	349.35
453.059	504.99
453.249	1103
453.438	-459.6
453.628	62.63
453.817	859.29
454.007	672.93
454.197	-289.62
454.386	44.2
454.576	1127.58
454.765	1062.04
454.955	19.63
455.145	-172.88
455.334	838.81
455.524	591.01
455.714	193.7
455.904	-127.83
456.093	1533.08
456.283	916.64
456.473	-160.59
456.663	-166.74
456.852	976.03
457.042	857.25
457.232	79.02
457.422	558.24
457.612	918.68
457.802	1201.3
457.991	-363.34
458.181	-246.61
458.371	900.25
458.561	935.07
458.751	-179.03
458.941	-301.9
459.131	763.04
459.321	685.22
459.511	138.41
459.701	48.3
459.891	963.74
460.081	525.47
460.271	-84.82
460.461	-230.23
460.651	1520.79
460.841	1340.57
461.032	-39.76
461.222	-2.9
461.412	742.56
461.602	1535.12
461.792	-281.43
461.983	-295.76
462.173	896.16
462.363	1500.31
462.554	-35.67
462.744	-27.48
462.934	1000.6
463.125	885.92
463.315	-201.55
463.505	81.07
463.696	986.27
463.886	537.76
464.077	-162.64
464.267	-60.24
464.458	1242.26
464.648	554.15
464.839	189.61
465.03	-33.62
465.22	523.43
465.411	1014.94
465.601	-97.11
465.792	-115.54
465.983	744.61
466.174	1016.99
466.364	-361.3
466.555	5.29
466.746	1113.24
466.937	701.6
467.128	-101.2
467.319	9.39
467.51	1246.36
467.701	1825.93
467.891	23.72
468.082	-93.01
468.274	867.49
468.465	322.73
468.656	150.7
468.847	-291.66
469.038	545.95
469.229	677.02
469.42	79.02
469.612	-68.44
469.803	1162.39
469.994	1023.13
470.185	50.35
470.377	-174.93
470.568	939.16
470.76	1043.61
470.951	5.29
471.142	226.47
471.334	1234.07
471.526	1021.08
471.717	193.7
471.909	-109.4
472.1	840.86
472.292	1078.43
472.484	-148.31
472.675	-25.43
472.867	765.09
473.059	1426.58
473.251	122.02
473.443	-11.09
473.635	943.26
473.826	1146.01
474.018	17.58
474.21	203.94
474.402	1041.56
474.595	1356.95
474.787	23.72
474.979	361.64
475.171	760.99
475.363	439.46
475.555	-174.93
475.748	38.06
475.94	1299.61
476.132	797.85
476.325	15.53
476.517	658.59
476.71	1809.55
476.902	801.95
477.095	13.48
477.287	443.56
477.48	1348.76
477.673	1191.06
477.865	210.09
478.058	152.74
478.251	1373.33
478.444	1541.27
478.636	273.57
478.829	146.6
479.022	1250.46
479.215	1424.53
479.408	378.02
479.601	793.76
479.794	918.68
479.988	963.74
480.181	568.48
480.374	316.58
480.567	1342.61
480.76	1713.3
480.954	439.46
481.147	54.44
481.341	1078.43
481.534	1113.24
481.728	464.04
481.921	595.11
482.115	1574.03
482.308	1918.09
482.502	449.7
482.696	468.13
482.89	2188.43
483.084	1629.33
483.277	541.86
483.471	693.41
483.665	1807.5
483.859	2585.73
484.053	267.43
484.247	306.34
484.442	1571.99
484.636	1457.3
484.83	513.19
485.024	660.64
485.219	1496.21
485.413	1373.33
485.608	533.67
485.802	914.59
485.997	2077.83
486.191	1586.32
486.386	670.88
486.58	904.35
486.775	1846.41
486.97	2061.45
487.165	820.38
487.36	844.96
487.555	1752.21
487.75	1383.57
487.945	957.6
488.14	771.23
488.335	1426.58
488.53	1537.17
488.725	806.05
488.92	1023.13
489.116	2208.9
489.311	1959.05
489.507	705.7
489.702	1328.28
489.898	2356.36
490.093	1643.67
490.289	1387.67
490.485	1004.7
490.68	1377.43
490.876	2456.71
491.072	953.5
491.268	1150.11
491.464	2393.22
491.66	2077.83
491.856	1197.21
492.052	1633.43
492.248	2368.65
492.445	2202.76
492.641	1203.35
492.837	1160.34
493.034	2505.86
493.23	2692.23
493.427	1574.03
493.623	1275.03
493.82	2581.64
494.017	2679.94
494.214	1307.8
494.41	1238.17
494.607	2534.53
494.804	2245.77
495.001	1590.42
495.198	1600.66
495.395	2727.04
495.593	2776.19
495.79	1596.56
495.987	1414.29
496.184	2079.88
496.382	2761.86
496.579	1424.53
496.777	1614.99
496.974	3392.63
497.172	2872.45
497.37	1875.09
497.568	1631.38
497.766	3538.04
497.963	2747.52
498.161	1760.4
498.359	2045.07
498.558	3480.69
498.756	3236.99
498.954	1879.18
499.152	2221.19
499.351	3339.38
499.549	3130.49
499.747	2088.07
499.946	2161.8
500.145	2937.98
500.343	3136.63
500.542	2169.99
500.741	2305.16
500.94	3445.88
501.139	3636.34
501.338	2411.65
501.537	2712.71
501.736	3996.78
501.935	3576.95
502.134	2327.69
502.334	2651.27
502.533	3935.34
502.733	3689.59
502.932	2770.05
503.132	2696.32
503.331	3681.39
503.531	4185.19
503.731	2907.26
503.931	2940.03
504.131	3685.49
504.331	4209.77
504.531	3060.86
504.731	3150.97
504.931	3880.05
505.132	4095.08
505.332	3153.02
505.532	3185.79
505.733	4385.9
505.933	4840.54
506.134	3325.05
506.335	3169.4
506.536	4125.8
506.736	4666.47
506.937	3335.29
507.138	3290.23
507.34	5174.36
507.541	4506.73
507.742	3871.86
507.943	3503.22
508.145	4643.94
508.346	4256.87
508.548	3323
508.749	3556.47
508.951	4269.16
509.153	4596.84
509.354	3851.38
509.556	3880.05
509.758	5149.79
509.96	4355.18
510.163	4093.04
510.365	4093.04
510.567	4889.7
510.769	4795.49
510.972	3918.96
511.174	4387.94
511.377	4768.87
511.58	6122.57
511.782	4027.5
511.985	4203.63
512.188	5649.49
512.391	5620.82
512.594	4248.68
512.797	4539.49
513.001	5649.49
513.204	6040.65
513.407	4467.81
513.611	4545.64
513.814	5706.84
514.018	6020.17
514.222	4602.98
514.425	4543.59
514.629	5575.77
514.833	5618.77
515.037	5004.38
515.241	4551.78
515.445	5436.5
515.65	5403.74
515.854	4764.77
516.059	5006.43
516.263	6001.74
516.468	5981.26
516.672	4955.23
516.877	4723.81
517.082	5543
517.287	5852.24
517.492	5114.97
517.697	4897.89
517.902	6108.24
518.107	5639.25
518.313	5117.02
518.518	4959.33
518.724	6526.02
518.929	5837.91
519.135	5194.84
519.341	4760.67
519.547	6136.91
519.753	6353.99
519.959	5145.69
520.165	4973.66
520.371	6493.26
520.577	6939.71
520.784	4805.73
520.99	5395.54
521.197	6233.16
521.404	6214.73
521.61	4955.23
521.817	5065.82
522.024	6698.05
522.231	5837.91
522.438	4944.99
522.645	5622.87
522.853	6149.2
523.06	6437.96
523.268	5323.87
523.475	5332.06
523.683	6448.2
523.891	6571.08
524.098	4908.13
524.306	5274.71
524.514	6351.95
524.722	6239.31
524.931	5506.13
525.139	5289.05
525.347	5813.33
525.556	6190.16
525.764	5526.61
525.973	5510.23
526.182	6255.69
526.391	6093.9
526.6	5174.36
526.809	5526.61
527.018	6222.92
527.227	6444.1
527.436	5297.24
527.646	5166.17
527.855	6560.84
528.065	6317.13
528.275	5143.64
528.484	5399.64
528.694	6722.63
528.904	6294.6
529.114	5229.66
529.325	5346.39
529.535	6026.32
529.745	6464.58
529.956	5252.19
530.166	5207.13
530.377	6329.42
530.588	6890.56
530.799	5631.06
531.01	5368.92
531.221	6560.84
531.432	6644.81
531.643	5608.53
531.855	5880.91
532.066	6706.24
532.278	6415.43
532.489	5366.87
532.701	5198.94
532.913	6632.52
533.125	6358.09
533.337	5004.38
533.549	5063.77
533.762	6386.76
533.974	5923.92
534.186	5006.43
534.399	5362.78
534.612	6700.1
534.825	6356.04
535.037	5450.84
535.25	5616.72
535.464	6141
535.677	6696
535.89	5198.94
536.104	5391.45
536.317	6153.29
536.531	6085.71
536.744	5477.46
536.958	5102.68
537.172	6220.88
537.386	6136.91
537.6	5303.39
537.815	4985.95
538.029	6304.84
538.244	6460.49
538.458	4789.35
538.673	5059.68
538.888	6288.46
539.103	6622.28
539.318	5456.98
539.533	4955.23
539.748	6075.47
539.963	5901.39
540.179	4967.52
540.394	4818.02
540.61	5637.2
540.826	5768.27
541.042	4863.07
541.258	4662.37
541.474	6542.41
541.69	5682.26
541.906	5037.15
542.123	4912.22
542.339	6128.72
542.556	5555.29
542.773	4793.44
542.99	5006.43
543.207	5717.08
543.424	5532.76
543.641	5055.58
543.858	5301.34
544.076	5516.37
544.293	5502.04
544.511	4809.83
544.729	4756.58
544.947	5788.75
545.165	5708.88
545.383	4699.23
545.601	4850.78
545.819	5823.57
546.038	5676.12
546.256	4871.26
546.475	4592.74
546.694	6669.38
546.913	6145.1
547.132	5381.21
547.351	4772.96
547.57	5311.58
547.79	5573.72
548.009	4793.44
548.229	4629.6
548.449	5497.94
548.668	5989.46
548.888	5004.38
549.109	4832.35
549.329	5796.95
549.549	5991.5
549.77	4600.93
549.99	4979.81
550.211	6018.13
550.432	6089.81
550.653	4514.92
550.874	4705.38
551.095	6323.27
551.316	5313.63
551.538	4613.22
551.759	4756.58
551.981	5588.05
552.203	5782.61
552.424	4570.21
552.646	4912.22
552.869	5336.15
553.091	5530.71
553.313	4869.22
553.536	4725.86
553.758	5637.2
553.981	5606.49
554.204	4609.12
554.427	4627.56
554.65	5694.55
554.873	4990.05
555.097	4224.11
555.32	4463.72
555.544	5798.99
555.768	5626.96
555.992	4525.16
556.216	4338.79
556.44	5170.27
556.664	5696.6
556.888	4830.3
557.113	4355.18
557.337	5997.65
557.562	5917.78
557.787	4402.28
558.012	4592.74
558.237	5473.37
558.462	5141.6
558.688	4625.51
558.913	4471.91
559.139	4846.69
559.365	5499.99
559.591	4365.42
559.817	4494.44
560.043	5555.29
560.269	5813.33
560.496	4723.81
560.722	4459.62
560.949	5790.8
561.176	4830.3
561.403	4408.42
561.63	4572.26
561.857	4777.06
562.084	4942.94
562.312	4097.13
562.539	4445.29
562.767	5774.42
562.995	5092.44
563.223	4267.11
563.451	4412.52
563.679	4932.7
563.908	5110.88
564.136	4308.07
564.365	4473.96
564.594	4713.57
564.823	6247.5
565.052	4506.73
565.281	3845.23
565.51	5274.71
565.74	4951.14
565.969	3900.53
566.199	4314.22
566.429	5307.48
566.659	5141.6
566.889	4109.42
567.119	4162.67
567.35	5641.3
567.58	5569.62
567.811	4224.11
568.042	4168.81
568.273	4807.78
568.504	5127.26
568.735	4195.43
568.966	4160.62
569.198	5004.38
569.43	5125.21
569.661	4187.24
569.893	4455.53
570.125	5567.57
570.358	5141.6
570.59	4207.72
570.822	4027.5
571.055	5280.86
571.288	5270.62
571.521	3841.14
571.754	3945.58
571.987	5366.87
572.22	4955.23
572.454	4181.1
572.687	3882.1
572.921	4322.41
573.155	4807.78
573.389	4602.98
573.623	4201.58
573.858	4709.47
574.092	5035.1
574.327	3949.68
574.561	4146.28
574.796	4418.66
575.031	4850.78
575.266	3755.12
575.502	3699.83
575.737	4979.81
575.973	4643.94
576.209	3765.36
576.445	3744.88
576.681	4408.42
576.917	4717.67
577.153	3650.67
577.39	3710.07
577.626	4703.33
577.863	4613.22
578.1	3499.13
578.337	3654.77
578.574	4367.46
578.812	4887.65
579.049	3898.48
579.287	3576.95
579.525	4815.97
579.763	4854.88
580.001	3411.06
580.239	3619.96
580.478	5149.79
580.716	4449.38
580.955	3720.31
581.194	3740.79
581.433	4840.54
581.672	4555.88
581.911	3560.56
582.151	3376.25
582.39	4377.7
582.63	4840.54
582.87	3392.63
583.11	3419.25
583.35	3841.14
583.591	4240.49
583.831	3540.08
584.072	3931.25
584.313	4295.79
584.554	4240.49
584.795	3462.26
585.036	3609.72
585.277	4889.7
585.519	4504.68
585.761	3024
586.003	3239.03
586.245	4256.87
586.487	4830.3
586.729	3388.53
586.972	3312.76
587.215	5000.29
587.457	3996.78
587.7	3400.82
587.944	3210.36
588.187	3998.83
588.43	3929.2
588.674	3118.2
588.918	2954.37
589.162	4486.25
589.406	3759.22
589.65	3081.34
589.894	3806.32
590.139	4082.8
590.384	4361.32
590.629	2778.24
590.874	3073.15
591.119	3581.04
591.364	4179.05
591.61	2999.42
591.855	2964.61
592.101	4641.89
592.347	4084.84
592.593	3087.48
592.84	3146.87
593.086	4559.97
593.333	3650.67
593.58	2839.68
593.827	2643.07
594.074	3929.2
594.321	3748.98
594.568	2876.54
594.816	2557.06
595.064	3751.03
595.312	3728.5
595.56	2931.84
595.808	3050.62
596.057	4035.69
596.305	3615.86
596.554	2413.7
596.803	2817.15
597.052	3964.01
597.301	4185.19
597.551	2559.11
597.8	3030.14
598.05	3726.45
598.3	3654.77
598.55	2532.48
598.8	2577.54
599.051	3347.58
599.301	3284.09
599.552	2282.63
599.803	2872.45
600.054	3757.17
600.305	3529.84
600.556	2749.57
600.808	2692.23
601.06	3232.89
601.312	3812.46
601.564	2536.58
601.816	2229.38
602.068	3933.29
602.321	3583.09
602.574	2563.2
602.827	2180.23
603.08	3275.9
603.333	3497.08
603.587	2323.59
603.84	2532.48
604.094	3535.99
604.348	3134.59
604.602	2241.67
604.856	2446.47
605.111	3470.45
605.365	3531.89
605.62	2473.09
605.875	2260.1
606.13	3372.15
606.386	3204.22
606.641	2372.74
606.897	2092.17
607.153	2964.61
607.409	3560.56
607.665	1981.58
607.921	2167.95
608.178	2905.21
608.435	3347.58
608.692	2196.62
608.949	2208.9
609.206	3409.01
609.463	3275.9
609.721	2225.29
609.979	2331.78
610.237	3173.5
610.495	3611.76
610.753	2516.1
611.012	2368.65
611.27	3550.32
611.529	3337.34
611.788	2260.1
612.047	2073.74
612.307	2888.83
612.566	3368.06
612.826	2108.55
613.086	2219.14
613.346	2636.93
613.606	3193.98
613.867	2086.03
614.127	2266.25
614.388	2665.6
614.649	3355.77
614.91	1864.85
615.172	2239.62
615.433	2800.77
615.695	2868.35
615.957	2198.67
616.219	2047.12
616.481	3486.84
616.743	2847.87
617.006	1744.02
617.269	2180.23
617.532	3134.59
617.795	2929.79
618.058	1991.82
618.322	2096.27
618.586	3138.68
618.849	2606.21
619.114	2184.33
619.378	1778.83
619.642	3042.43
619.907	3060.86
620.172	2063.5
620.437	1991.82
620.702	3064.96
620.967	2663.55
621.233	1893.52
621.499	1930.38
621.765	2755.71
622.031	3085.44
622.297	1815.69
622.564	1858.7
622.83	2831.49
623.097	3400.82
623.364	1893.52
623.631	2247.82
623.899	3048.57
624.166	2978.94
624.434	1633.43
624.702	1655.95
624.97	3218.55
625.239	2532.48
625.507	1670.29
625.776	1827.98
626.045	2489.48
626.314	2794.62
626.584	1875.09
626.853	1789.07
627.123	2624.64
627.393	2077.83
627.663	1836.17
627.933	1707.15
628.204	2851.97
628.474	2847.87
628.745	1504.4
629.016	1825.93
629.287	2643.07
629.559	2378.89
629.83	1432.72
630.102	1631.38
630.374	2210.95
630.646	3224.7
630.919	1655.95
631.191	1959.05
631.464	2524.29
631.737	2307.21
632.01	1352.85
632.284	1571.99
632.557	3019.9
632.831	2708.61
633.105	1350.81
633.379	1569.94
633.654	2020.49
633.928	2593.92
634.203	1537.17
634.478	1383.57
634.753	2489.48
635.028	2651.27
635.304	1709.2
635.58	1412.25
635.856	2391.17
636.132	2315.4
636.408	1447.06
636.685	1502.36
636.961	2360.45
637.238	2389.13
637.515	1492.12
637.793	1571.99
638.07	2743.42
638.348	2221.19
638.626	1645.71
638.904	1580.18
639.182	1776.78
639.461	1922.19
639.74	1571.99
640.019	1713.3
640.298	1621.14
640.577	2258.06
640.857	1377.43
641.136	1363.09
641.416	2131.08
641.696	2768
641.977	1483.92
642.257	1459.35
642.538	2364.55
642.819	2843.78
643.1	1201.3
643.382	1012.89
643.663	2462.85
643.945	2319.5
644.227	1424.53
644.509	1182.87
644.792	2724.99
645.074	2258.06
645.357	1238.17
645.64	1012.89
645.923	2141.32
646.207	2219.14
646.49	1279.13
646.774	1080.47
647.058	1926.29
647.342	2290.82
647.627	1074.33
647.911	1082.52
648.196	2419.85
648.481	2387.08
648.767	1123.48
649.052	1096.86
649.338	1727.63
649.624	1819.79
649.91	990.36
650.196	1094.81
650.483	2251.91
650.77	2430.09
651.057	1377.43
651.344	1270.94
651.631	1905.81
651.919	1694.86
652.207	1131.67
652.495	1109.15
652.783	2069.64
653.071	2045.07
653.36	885.92
653.649	1033.37
653.938	1766.54
654.227	2135.18
654.517	1236.12
654.806	791.71
655.096	1547.41
655.387	2094.22
655.677	1014.94
655.968	943.26
656.258	1684.62
656.549	2294.92
656.841	1119.39
657.132	1053.85
657.424	1760.4
657.716	2065.55
658.008	996.51
658.3	808.09
658.592	1981.58
658.885	2143.37
659.178	930.97
659.471	767.13
659.765	1342.61
660.058	1827.98
660.352	754.85
660.646	685.22
660.94	2223.24
661.235	1926.29
661.53	1137.82
661.824	431.27
662.12	1746.06
662.415	1248.41
662.711	824.48
663.006	865.44
663.302	1467.54
663.599	1291.41
663.895	623.78
664.192	955.55
664.489	2077.83
664.786	1934.48
665.083	543.91
665.381	545.95
665.678	1582.23
665.976	1815.69
666.275	408.74
666.573	763.04
666.872	1326.23
667.171	1551.51
667.47	445.6
667.769	412.84
668.069	1922.19
668.368	1764.5
668.668	369.83
668.969	388.26
669.269	1475.73
669.57	1176.73
669.871	521.38
670.172	611.49
670.473	1799.31
670.775	1965.2
671.077	355.49
671.379	619.68
671.681	1887.37
671.983	1510.55
672.286	423.08
672.589	570.53
672.892	1475.73
673.196	1594.51
673.499	431.27
673.803	449.7
674.107	1664.15
674.411	1475.73
674.716	545.95
675.021	668.83
675.326	1387.67
675.631	1737.87
675.936	261.29
676.242	472.23
676.548	1143.96
676.854	1971.34
677.16	171.18
677.467	365.73
677.774	1465.49
678.081	1268.89
678.388	756.9
678.696	607.39
679.004	1692.82
679.312	1914
679.62	365.73
679.928	603.3
680.237	1725.58
680.546	939.16
680.855	537.76
681.164	310.44
681.474	1553.55
681.784	1481.88
682.094	437.41
682.404	216.23
682.715	1668.24
683.026	910.49
683.337	255.14
683.648	599.2
683.959	1860.75
684.271	1619.09
684.583	316.58
684.895	138.41
685.208	1451.16
685.52	1498.26
685.833	504.99
686.146	201.9
686.46	1694.86
686.773	1406.1
687.087	439.46
687.401	259.24
687.716	1471.64
688.03	1389.72
688.345	109.74
688.66	330.92
688.975	1678.48
689.291	1520.79
689.607	791.71
689.923	302.25
690.239	1219.74
690.555	1512.6
690.872	263.33
691.189	-82.77
691.506	1285.27
691.824	1473.68
692.142	115.88
692.459	279.72
692.778	1049.75
693.096	1590.42
693.415	537.76
693.734	382.12
694.053	1072.28
694.372	824.48
694.692	-21.33
695.012	365.73
695.332	890.01
695.652	1281.18
695.973	316.58
696.294	150.7
696.615	933.02
696.936	1676.43
697.258	-82.77
697.579	169.13
697.902	939.16
698.224	1006.75
698.546	124.07
698.869	-99.16
699.192	869.53
699.516	1449.11
699.839	54.44
700.163	265.38
700.487	822.43
700.811	1821.84
701.136	-269.14
701.461	148.65
701.786	1234.07
702.111	1668.24
702.436	-154.45
702.762	263.33
703.088	1287.32
703.415	1809.55
703.741	216.23
704.068	87.21
704.395	861.34
704.722	1402.01
705.05	-2.9
705.377	97.45
705.705	1180.82
706.034	996.51
706.362	-101.2
706.691	-240.47
707.02	1365.14
707.349	1248.41
707.679	105.64
708.009	21.67
708.339	1098.91
708.669	973.98
709	109.74
709.33	-109.4
709.661	1115.29
709.993	832.67
710.324	218.28
710.656	-66.39
710.988	1168.54
711.321	1363.09
711.653	-248.66
711.986	46.25
712.319	488.61
712.652	1250.46
712.986	398.5
713.32	66.73
713.654	1367.19
713.988	1307.8
714.323	5.29
714.658	-0.85
714.993	928.92
715.328	1090.71
715.664	107.69
716	238.76
716.336	1569.94
716.673	877.73
717.009	208.04
717.346	76.97
717.683	1528.98
718.021	1062.04
718.359	-140.12
718.697	126.12
719.035	832.67
719.373	844.96
719.712	275.62
720.051	-105.3
720.39	1275.03
720.73	959.64
721.07	-27.48
721.41	-11.09
721.75	1275.03
722.091	1174.68
722.432	-84.82
722.773	279.72
723.114	955.55
723.456	908.44
723.798	-84.82
724.14	9.39
724.482	748.7
724.825	1098.91
725.168	179.37
725.511	38.06
725.855	918.68
726.198	701.6
726.542	-179.03
726.887	341.16
727.231	1205.4
727.576	570.53
727.921	162.98
728.266	-215.89
728.612	840.86
728.958	1203.35
729.304	-142.16
729.651	341.16
729.997	717.98
730.344	787.61
730.691	-117.59
731.039	111.78
731.387	963.74
731.735	660.64
732.083	-7
732.431	70.83
732.78	701.6
733.129	138.41
733.479	-187.22
733.828	83.11
734.178	644.26
734.528	316.58
734.879	79.02
735.23	-113.49
735.581	1023.13
735.932	816.29
736.283	-52.05
736.635	-301.9
736.987	1201.3
737.34	1195.16
737.692	-265.04
738.045	-281.43
738.398	885.92
738.752	1111.19
739.105	-430.93
739.459	261.29
739.814	1068.19
740.168	1131.67
740.523	-248.66
740.878	38.06
741.233	816.29
741.589	1053.85
741.945	-138.07
742.301	-62.29
742.657	1242.26
743.014	687.26
743.371	-154.45
743.728	414.88
744.086	842.91
744.444	769.18
744.802	-324.43
745.16	-262.99
745.519	1107.1
745.878	642.21
746.237	-273.23
746.597	-7
746.956	1281.18
747.316	853.15
747.677	-306
748.037	-82.77
748.398	672.93
748.759	900.25
749.121	95.4
749.482	160.94
749.844	640.16
750.207	369.83
750.569	-535.37
750.932	21.67
751.295	1422.48
751.659	873.63
752.022	-246.61
752.386	312.49
752.751	711.84
753.115	357.54
753.48	-166.74
753.845	-105.3
754.21	799.9
754.576	717.98
754.942	-428.88
755.308	29.87
755.675	537.76
756.041	1260.7
756.409	-533.33
756.776	-84.82
757.144	1395.86
757.511	930.97
757.88	-162.64
758.248	-461.65
758.617	275.62
758.986	816.29
759.355	-17.24
759.725	-93.01
760.095	349.35
760.465	1033.37
760.836	-297.81
761.206	-232.27
761.577	1055.9
761.949	486.56
762.32	-2.9
762.692	-355.15
763.065	554.15
763.437	402.6
763.81	-412.5
764.183	-152.4
764.556	1146.01
764.93	636.06
765.304	40.11
765.678	1.19
766.053	742.56
766.428	636.06
766.803	-428.88
767.178	-265.04
767.554	214.18
767.93	527.52
768.306	-478.03
768.683	-334.67
769.06	926.88
769.437	564.39
769.814	-473.93
770.192	-428.88
770.57	558.24
770.948	1342.61
771.327	-166.74
771.706	-428.88
772.085	791.71
772.464	1029.27
772.844	-295.76
773.224	-430.93
773.605	191.66
773.985	380.07
774.366	-193.36
774.748	40.11
775.129	998.56
775.511	754.85
775.893	-285.52
776.276	-226.13
776.658	1062.04
777.041	652.45
777.425	-475.98
777.808	-338.77
778.192	537.76
778.576	1107.1
778.961	-613.2
779.346	-369.49
779.731	812.19
780.116	119.98
780.502	-295.76
780.888	-301.9
781.274	652.45
781.661	335.01
782.048	-500.56
782.435	-346.96
782.823	509.09
783.21	722.08
783.598	-273.23
783.987	-236.37
784.376	849.05
784.765	398.5
785.154	-314.19
785.544	-410.45
785.933	744.61
786.324	441.51
786.714	-125.78
787.105	-619.34
787.496	640.16
787.888	296.1
788.279	-504.65
788.671	-424.78
789.064	525.47
789.456	652.45
789.849	-545.61
790.242	-473.93
790.636	210.09
791.03	709.79
791.424	-469.84
791.818	1049.75
792.213	834.72
792.608	570.53
793.004	-113.49
793.399	-633.68
793.795	560.29
794.192	455.84
794.588	-494.41
794.985	-695.11
795.382	689.31
795.78	550.05
796.178	-375.63
796.576	-410.45
796.974	1029.27
797.373	513.19
797.772	-525.13
798.172	-447.31
798.571	455.84
798.971	799.9
799.372	-336.72
799.772	-281.43
800.173	935.07
800.574	504.99
800.976	-428.88
801.378	-568.14
801.78	193.7
802.182	-78.68
802.585	-400.21
802.988	-541.52
803.392	124.07
803.795	263.33
804.199	-572.24
804.604	-285.52
805.008	619.68
805.413	955.55
805.819	-394.06
806.224	-557.9
806.63	476.32
807.036	631.97
807.443	-340.82
807.85	-330.58
808.257	584.87
808.664	545.95
809.072	-84.82
809.48	-240.47
809.889	724.13
810.297	767.13
810.706	-111.44
811.116	-441.17
811.526	373.92
811.936	418.98
812.346	-488.27
812.757	-506.7
813.167	472.23
813.579	324.77
813.99	-351.06
814.402	-580.43
814.814	1035.42
815.227	441.51
815.64	-607.05
816.053	-443.21
816.467	736.42
816.88	496.8
817.294	-191.31
817.709	-232.27
818.124	316.58
818.539	980.12
818.954	-289.62
819.37	-64.34
819.786	83.11
820.202	631.97
820.619	-740.17
821.036	-490.32
821.453	894.11
821.871	554.15
822.289	-469.84
822.707	-574.28
823.126	681.12
823.545	146.6
823.964	-510.8
824.384	-494.41
824.804	95.4
825.224	668.83
825.645	-117.59
826.065	-551.76
826.487	693.41
826.908	758.94
827.33	-418.64
827.752	-19.29
828.175	564.39
828.598	750.75
829.021	-189.27
829.444	310.44
829.868	611.49
830.292	179.37
830.717	-559.95
831.142	-582.48
831.567	193.7
831.992	281.77
832.418	128.17
832.844	-615.24
833.27	515.23
833.697	394.4
834.124	-723.79
834.552	-682.83
834.979	930.97
835.408	752.8
835.836	-609.1
836.265	-312.14
836.694	302.25
837.123	644.26
837.553	-633.68
837.983	-658.25
838.413	773.28
838.844	681.12
839.275	-539.47
839.706	-222.03
840.138	1088.67
840.57	255.14
841.003	-486.22
841.435	-271.19
841.868	220.33
842.302	320.68
842.735	-338.77
843.169	-572.24
843.604	541.86
844.039	482.47
844.474	-527.18
844.909	-518.99
845.345	615.59
845.781	595.11
846.217	-590.67
846.654	-580.43
847.091	730.27
847.528	369.83
847.966	-631.63
848.404	-467.79
848.842	1074.33
849.281	-129.88
849.72	-426.83
850.16	-607.05
850.599	283.81
851.039	160.94
851.48	-150.36
851.921	-510.8
852.362	648.35
852.803	879.77
853.245	-785.23
853.687	-498.51
854.129	681.12
854.572	205.99
855.015	-695.11
855.459	-518.99
855.903	89.26
856.347	681.12
856.791	-435.02
857.236	-580.43
857.681	988.32
858.127	1277.08
858.572	-267.09
859.019	-541.52
859.465	709.79
859.912	418.98
860.359	-723.79
860.807	-590.67
861.255	294.05
861.703	746.66
862.151	-451.41
862.6	21.67
863.05	580.77
863.499	263.33
863.949	-478.03
864.4	-699.21
864.85	1029.27
865.301	726.18
865.752	-451.41
866.204	-510.8
866.656	179.37
867.109	853.15
867.561	-541.52
868.014	-246.61
868.468	705.7
868.921	672.93
869.376	-422.73
869.83	-510.8
870.285	502.95
870.74	185.51
871.195	-451.41
871.651	-424.78
872.107	1074.33
872.564	205.99
873.021	-723.79
873.478	-691.02
873.936	687.26
874.394	677.02
874.852	-490.32
875.31	-326.48
875.769	504.99
876.229	1006.75
876.688	-422.73
877.148	-490.32
877.609	484.52
878.069	165.03
878.531	-346.96
878.992	-711.5
879.454	410.79
879.916	480.42
880.378	-547.66
880.841	-451.41
881.304	-47.96
881.768	109.74
882.232	-586.57
882.696	-324.43
883.161	122.02
883.626	369.83
884.091	-457.55
884.557	-531.28
885.023	132.26
885.489	693.41
885.956	-758.6
886.423	-559.95
886.89	-21.33
887.358	435.36
887.826	-457.55
888.295	-449.36
888.763	165.03
889.233	1086.62
889.702	-420.69
890.172	-576.33
890.642	326.82
891.113	224.42
891.584	-76.63
892.055	-508.75
892.527	738.46
892.999	906.4
893.472	-535.37
893.944	-308.05
894.417	353.45
894.891	124.07
895.365	-375.63
895.839	-387.92
896.314	474.28
896.789	-213.84
897.264	-518.99
897.74	-697.16
898.216	849.05
898.692	611.49
899.169	-559.95
899.646	-547.66
900.123	474.28
900.601	1049.75
901.079	-605
901.558	-525.13
902.037	722.08
902.516	447.65
902.996	-695.11
903.476	-699.21
903.956	312.49
904.437	740.51
904.918	-680.78
905.399	-723.79
905.881	580.77
906.363	607.39
906.846	-650.06
907.329	-428.88
907.812	40.11
908.296	517.28
908.78	-650.06
909.264	-719.69
909.749	107.69
910.234	775.33
910.719	-609.1
911.205	-383.82
911.691	-76.63
912.178	468.13
912.665	-80.72
913.152	-637.77
913.64	226.47
914.128	627.87
914.616	-523.09
915.105	-516.94
915.594	431.27
916.084	988.32
916.574	-424.78
917.064	-660.3
917.555	-11.09
918.046	562.34
918.537	-105.3
919.029	-944.97
919.521	193.7
920.013	808.09
920.506	-418.64
920.999	-666.44
921.493	652.45
921.987	228.52
922.481	-289.62
922.976	-566.09
923.471	189.61
923.967	480.42
924.462	-478.03
924.959	-457.55
925.455	523.43
925.952	349.35
926.449	-666.44
926.947	-598.86
927.445	365.73
927.944	349.35
928.442	-838.47
928.942	-711.5
929.441	586.91
929.941	56.49
930.442	-621.39
930.942	-545.61
931.443	689.31
931.945	-47.96
932.447	-662.35
932.949	-508.75
933.451	240.81
933.954	306.34
934.458	-297.81
934.961	-605
935.465	115.88
935.97	46.25
936.475	-443.21
936.98	-680.78
937.486	-52.05
937.992	201.9
938.498	-510.8
939.005	-482.13
939.512	201.9
940.019	414.88
940.527	-457.55
941.035	-295.76
941.544	576.67
942.053	394.4
942.562	-201.55
943.072	-150.36
943.582	717.98
944.093	261.29
944.604	-684.87
945.115	-523.09
945.627	818.33
946.139	875.68
946.651	-562
947.164	-369.49
947.677	556.19
948.191	464.04
948.705	-609.1
949.219	-676.68
949.734	228.52
950.249	724.13
950.765	-543.57
951.281	-574.28
951.797	1440.92
952.314	728.22
952.831	-633.68
953.348	-813.9
953.866	668.83
954.384	224.42
954.903	-643.92
955.422	-695.11
955.941	298.15
956.461	322.73
956.981	-674.64
957.502	-416.59
958.023	431.27
958.544	468.13
959.066	-394.06
959.588	-633.68
960.11	66.73
960.633	728.22
961.156	-508.75
961.68	-584.52
962.204	746.66
962.729	56.49
963.253	-695.11
963.779	-29.52
964.304	500.9
964.83	871.58
965.357	-760.65
965.883	-379.73
966.411	464.04
966.938	588.96
967.466	-551.76
967.994	-803.66
968.523	179.37
969.052	836.77
969.582	-541.52
970.112	-641.87
970.642	83.11
971.173	769.18
971.704	-629.58
972.235	-469.84
972.767	627.87
973.3	292.01
973.832	-377.68
974.365	-748.36
974.899	439.46
975.433	588.96
975.967	-742.22
976.502	-322.38
977.037	394.4
977.572	844.96
978.108	-686.92
978.644	-750.41
979.181	1105.05
979.718	644.26
980.255	-938.82
980.793	-486.22
981.331	-146.26
981.87	672.93
982.409	-605
982.948	-420.69
983.488	365.73
984.028	865.44
984.569	-473.93
985.11	-572.24
985.651	832.67
986.193	539.81
986.735	-715.59
987.278	-684.87
987.821	-119.64
988.364	195.75
988.908	-455.5
989.452	-744.27
989.997	-338.77
990.542	607.39
991.088	-637.77
991.633	-252.75
992.18	382.12
992.726	-117.59
993.273	-502.61
993.821	-340.82
994.369	255.14
994.917	695.46
995.465	-748.36
996.014	-869.19
996.564	664.74
997.114	201.9
997.664	-351.06
998.215	-738.12
998.766	461.99
999.317	-76.63
999.869	-523.09
1000.421	-697.16
1000.974	570.53
1001.527	689.31
1002.081	-691.02
1002.635	-254.8
1003.189	396.45
1003.744	771.23
1004.299	-807.75
1004.854	-605
1005.41	922.78
1005.967	326.82
1006.523	-480.08
1007.081	-461.65
1007.638	406.69
1008.196	556.19
1008.755	-756.55
1009.313	-500.56
1009.873	648.35
1010.432	25.77
1010.992	-418.64
1011.553	-492.37
1012.114	408.74
1012.675	-76.63
1013.237	-396.11
1013.799	-158.55
1014.361	574.63
1014.924	-72.53
1015.487	-670.54
1016.051	-484.17
1016.615	668.83
1017.18	414.88
1017.745	-564.04
1018.31	-144.21
1018.876	894.11
1019.442	451.75
1020.009	-467.79
1020.576	-838.47
1021.143	380.07
1021.711	693.41
1022.28	-510.8
1022.848	-686.92
1023.417	734.37
1023.987	339.11
1024.557	-600.91
1025.127	-686.92
1025.698	-60.24
1026.269	31.91
1026.841	-674.64
1027.413	-451.41
1027.985	251.05
1028.558	306.34
1029.131	-633.68
1029.705	-435.02
1030.279	425.12
1030.854	406.69
1031.429	-772.94
1032.004	-250.71
1032.58	636.06
1033.156	140.46
1033.733	-570.19
1034.31	-592.72
1034.887	634.02
1035.465	670.88
1036.043	-885.58
1036.622	-516.94
1037.201	210.09
1037.781	732.32
1038.361	-658.25
1038.941	-777.03
1039.522	537.76
1040.103	754.85
1040.685	-686.92
1041.267	-293.71
1041.85	1119.39
1042.433	625.83
1043.016	-676.68
1043.6	-635.72
1044.184	-332.62
1044.769	623.78
1045.354	-498.51
1045.939	-756.55
1046.525	382.12
1047.111	496.8
1047.698	-533.33
1048.285	-768.84
1048.873	535.71
1049.461	-33.62
1050.049	-641.87
1050.638	-682.83
1051.228	124.07
1051.817	705.7
1052.407	-617.29
1052.998	-346.96
1053.589	472.23
1054.18	611.49
1054.772	-957.25
1055.365	-699.21
1055.957	484.52
1056.55	205.99
1057.144	-459.6
1057.738	-650.06
1058.333	132.26
1058.927	242.85
1059.523	-596.81
1060.118	-705.35
1060.715	165.03
1061.311	591.01
1061.908	-740.17
1062.506	-471.89
1063.103	531.62
1063.702	-60.24
1064.3	-842.57
1064.9	-717.64
1065.499	904.35
1066.099	128.17
1066.7	-541.52
1067.301	-865.1
1067.902	849.05
1068.504	789.66
1069.106	-363.34
1069.709	-416.59
1070.312	816.29
1070.915	513.19
1071.519	-705.35
1072.123	-361.3
1072.728	638.11
1073.333	341.16
1073.939	-338.77
1074.545	-478.03
1075.152	679.07
1075.759	148.65
1076.366	-723.79
1076.974	-355.15
1077.582	302.25
1078.191	722.08
1078.8	-441.17
1079.41	-922.44
1080.02	435.36
1080.63	378.02
1081.241	-93.01
1081.852	-934.73
1082.464	394.4
1083.076	406.69
1083.689	-658.25
1084.302	-498.51
1084.915	816.29
1085.529	486.56
1086.144	-559.95
1086.759	-551.76
1087.374	246.95
1087.99	337.06
1088.606	-715.59
1089.222	-535.37
1089.839	619.68
1090.457	208.04
1091.075	-518.99
1091.693	-848.71
1092.312	492.71
1092.931	873.63
1093.551	-609.1
1094.171	-183.12
1094.792	425.12
1095.413	224.42
1096.034	-609.1
1096.656	-566.09
1097.278	605.35
1097.901	316.58
1098.524	-641.87
1099.148	-398.16
1099.772	1064.09
1100.397	375.97
1101.022	-729.93
1101.647	-621.39
1102.273	447.65
1102.899	713.89
1103.526	-895.82
1104.153	-375.63
1104.781	627.87
1105.409	816.29
1106.038	-699.21
1106.667	-838.47
1107.296	165.03
1107.926	380.07
1108.556	-162.64
1109.187	-555.85
1109.818	378.02
1110.45	677.02
1111.082	-500.56
1111.715	-691.02
1112.348	423.08
1112.981	292.01
1113.615	-248.66
1114.25	-461.65
1114.885	234.66
1115.52	165.03
1116.156	-760.65
1116.792	-600.91
1117.428	617.63
1118.066	119.98
1118.703	-281.43
1119.341	-609.1
1119.98	742.56
1120.618	793.76
1121.258	-746.31
1121.898	-752.46
1122.538	451.75
1123.179	-31.57
1123.82	-543.57
1124.461	-447.31
1125.103	613.54
1125.746	115.88
1126.389	-435.02
1127.032	-709.45
1127.676	591.01
1128.32	937.12
1128.965	-512.85
1129.61	-367.44
1130.256	128.17
1130.902	644.26
1131.549	-633.68
1132.196	-602.96
1132.844	758.94
1133.491	677.02
1134.14	-588.62
1134.789	-508.75
1135.438	1053.85
1136.088	177.32
1136.738	-641.87
1137.389	-762.7
1138.04	517.28
1138.692	1004.7
1139.344	-621.39
1139.996	-641.87
1140.649	488.61
1141.303	652.45
1141.957	-518.99
1142.611	-537.42
1143.266	449.7
1143.921	441.51
1144.577	-625.48
1145.233	-623.44
1145.89	128.17
1146.547	640.16
1147.205	-760.65
1147.863	-469.84
1148.521	435.36
1149.18	728.22
1149.84	-766.79
1150.5	-609.1
1151.16	292.01
1151.821	664.74
1152.482	-590.67
1153.144	-33.62
1153.806	582.82
1154.469	490.66
1155.132	-748.36
1155.796	-441.17
1156.46	627.87
1157.124	1043.61
1157.789	-772.94
1158.455	-664.4
1159.121	388.26
1159.787	103.59
1160.454	-449.36
1161.121	-377.68
1161.789	300.2
1162.457	619.68
1163.126	-531.28
1163.795	-576.33
1164.465	431.27
1165.135	189.61
1165.806	-447.31
1166.477	-402.26
1167.148	-353.1
1167.82	459.94
1168.493	-863.05
1169.166	-437.07
1169.839	48.3
1170.513	441.51
1171.187	-772.94
1171.862	-639.82
1172.537	251.05
1173.213	529.57
1173.889	-666.44
1174.566	-699.21
1175.243	750.75
1175.921	255.14
1176.599	-363.34
1177.278	-334.67
1177.957	15.53
1178.636	791.71
1179.316	-355.15
1179.997	-830.28
1180.678	564.39
1181.359	691.36
1182.041	-756.55
1182.723	-764.75
1183.406	720.03
1184.089	87.21
1184.773	-734.03
1185.457	-758.6
1186.142	242.85
1186.827	1375.38
1187.513	-797.51
1188.199	-181.07
1188.886	152.74
1189.573	402.6
1190.26	-535.37
1190.948	-613.2
1191.637	62.63
1192.326	283.81
1193.015	-715.59
1193.705	-777.03
1194.396	210.09
1195.087	267.43
1195.778	-404.3
1196.47	-740.17
1197.162	433.32
1197.855	476.32
1198.548	-645.96
1199.242	-856.9
1199.936	468.13
1200.631	613.54
1201.326	-949.06
1202.022	-691.02
1202.718	832.67
1203.415	537.76
1204.112	-811.85
1204.81	-568.14
1205.508	246.95
1206.206	1033.37
1206.905	-633.68
1207.605	-707.4
1208.305	218.28
1209.005	392.36
1209.706	-693.07
1210.408	-734.03
1211.11	320.68
1211.812	515.23
1212.515	-639.82
1213.218	-594.76
1213.922	332.97
1214.627	302.25
1215.331	-516.94
1216.037	-553.8
1216.743	5.29
1217.449	488.61
1218.156	-502.61
1218.863	-449.36
1219.571	287.91
1220.279	726.18
1220.988	-666.44
1221.697	-484.17
1222.406	697.5
1223.117	144.55
1223.827	-539.47
1224.538	-662.35
1225.25	300.2
1225.962	394.4
1226.675	-883.53
1227.388	-457.55
1228.101	201.9
1228.815	70.83
1229.53	-568.14
1230.245	-576.33
1230.961	504.99
1231.677	277.67
1232.393	-568.14
1233.11	-527.18
1233.828	1117.34
1234.546	455.84
1235.264	-674.64
1235.983	-326.48
1236.702	1143.96
1237.422	351.4
1238.143	-334.67
1238.864	-617.29
1239.585	746.66
1240.307	-260.95
1241.029	-760.65
1241.752	-338.77
1242.476	640.16
1243.2	885.92
1243.924	-490.32
1244.649	-510.8
1245.374	679.07
1246.1	836.77
1246.826	-836.42
1247.553	-568.14
1248.28	439.46
1249.008	492.71
1249.737	-807.75
1250.465	-449.36
1251.195	513.19
1251.925	849.05
1252.655	-725.83
1253.386	-404.3
1254.117	238.76
1254.849	214.18
1255.581	-686.92
1256.314	-498.51
1257.047	763.04
1257.781	574.63
1258.515	-666.44
1259.25	-189.27
1259.985	398.5
1260.721	388.26
1261.457	-478.03
1262.194	-924.49
1262.931	214.18
1263.669	793.76
1264.407	-443.21
1265.146	-748.36
1265.885	418.98
1266.625	218.28
1267.365	-594.76
1268.106	-658.25
1268.847	492.71
1269.589	197.8
1270.331	-379.73
1271.074	-416.59
1271.817	359.59
1272.561	476.32
1273.305	-336.72
1274.05	-430.93
1274.795	324.77
1275.541	459.94
1276.287	-787.27
1277.034	-750.41
1277.781	-11.09
1278.529	648.35
1279.277	-838.47
1280.026	-867.14
1280.775	783.52
1281.525	-396.11
1282.275	-885.58
1283.026	-117.59
1283.777	355.49
1284.529	556.19
1285.281	-600.91
1286.034	-781.13
1286.788	840.86
1287.541	398.5
1288.296	-867.14
1289.051	-461.65
1289.806	464.04
1290.562	564.39
1291.318	-762.7
1292.075	-455.5
1292.832	830.62
1293.59	892.06
1294.349	-639.82
1295.108	-539.47
1295.867	998.56
1296.627	648.35
1297.387	-781.13
1298.148	-543.57
1298.91	341.16
1299.672	160.94
1300.434	-592.72
1301.197	-826.18
1301.961	1361.05
1302.725	259.24
1303.489	-473.93
1304.254	-494.41
1305.02	466.08
1305.786	748.7
1306.552	-901.96
1307.319	-885.58
1308.087	849.05
1308.855	844.96
1309.624	-637.77
1310.393	-467.79
1311.162	-199.51
1311.933	644.26
1312.703	-588.62
1313.474	-416.59
1314.246	398.5
1315.018	601.25
1315.791	-234.32
1316.564	-658.25
1317.338	722.08
1318.112	304.29
1318.887	-740.17
1319.662	-439.12
1320.438	298.15
1321.214	158.89
1321.991	-428.88
1322.769	-764.75
1323.546	292.01
1324.325	136.36
1325.104	-785.23
1325.883	-533.33
1326.663	-74.58
1327.444	386.21
1328.224	-613.2
1329.006	-465.74
1329.788	433.32
1330.571	418.98
1331.354	-248.66
1332.137	-717.64
1332.921	705.7
1333.706	-93.01
1334.491	-383.82
1335.277	-496.46
1336.063	130.22
1336.849	230.57
1337.637	-691.02
1338.424	-629.58
1339.213	992.41
1340.001	820.38
1340.791	-701.26
1341.581	-301.9
1342.371	504.99
1343.162	298.15
1343.953	-664.4
1344.745	-508.75
1345.537	480.42
1346.33	623.78
1347.124	-658.25
1347.918	-318.29
1348.712	924.83
1349.507	562.34
1350.303	-613.2
1351.099	-482.13
1351.896	119.98
1352.693	-191.31
1353.49	-543.57
1354.289	-580.43
1355.087	494.76
1355.887	810.14
1356.686	-478.03
1357.487	-662.35
1358.288	58.54
1359.089	318.63
1359.891	-166.74
1360.693	-543.57
1361.496	-109.4
1362.3	234.66
1363.104	-674.64
1363.908	-611.15
1364.713	890.01
1365.519	877.73
1366.325	-607.05
1367.131	-772.94
1367.939	316.58
1368.746	851.1
1369.555	-973.64
1370.363	-482.13
1371.173	875.68
1371.982	1289.37
1372.793	-666.44
1373.604	-932.68
1374.415	650.4
1375.227	844.96
1376.039	-715.59
1376.852	-703.31
1377.666	1010.84
1378.48	466.08
1379.295	-686.92
1380.11	-854.86
1380.925	1.19
1381.742	965.79
1382.558	-586.57
1383.376	-648.01
1384.193	490.66
1385.012	242.85
1385.831	-656.2
1386.65	-613.2
1387.47	214.18
1388.29	187.56
1389.111	-516.94
1389.933	-805.71
1390.755	691.36
1391.578	357.54
1392.401	-867.14
1393.225	-596.81
1394.049	826.53
1394.873	238.76
1395.699	-617.29
1396.525	-508.75
1397.351	711.84
1398.178	56.49
1399.005	-543.57
1399.833	-1008.45
1400.662	562.34
1401.491	955.55
1402.321	-590.67
1403.151	-457.55
1403.981	390.31
1404.813	599.2
1405.644	-416.59
1406.477	-705.35
1407.309	357.54
1408.143	1170.58
1408.977	-670.54
1409.811	-637.77
1410.646	904.35
1411.482	728.22
1412.318	-478.03
1413.155	-582.48
1413.992	769.18
1414.829	99.5
1415.668	-588.62
1416.506	-353.1
1417.346	851.1
1418.186	443.56
1419.026	-615.24
1419.867	-863.05
1420.709	660.64
1421.551	664.74
1422.393	-867.14
1423.236	-502.61
1424.08	400.55
1424.924	412.84
1425.769	-691.02
1426.614	-594.76
1427.46	500.9
1428.307	210.09
1429.154	-813.9
1430.001	-756.55
1430.849	386.21
1431.698	316.58
1432.547	-861
1433.397	-916.3
1434.247	707.74
1435.098	959.64
1435.949	-609.1
1436.801	-582.48
1437.653	162.98
1438.506	646.3
1439.36	-901.96
1440.214	-672.59
1441.069	593.06
1441.924	328.87
1442.78	-648.01
1443.636	-785.23
1444.493	433.32
1445.35	591.01
1446.208	-428.88
1447.067	-660.3
1447.926	468.13
1448.785	840.86
1449.645	-533.33
1450.506	-719.69
1451.367	488.61
1452.229	95.4
1453.091	-834.38
1453.954	-316.24
1454.818	292.01
1455.682	375.97
1456.546	-699.21
1457.412	-838.47
1458.277	781.47
1459.143	423.08
1460.01	-426.83
1460.878	-787.27
1461.745	398.5
1462.614	226.47
1463.483	-815.94
1464.352	-404.3
1465.223	789.66
1466.093	644.26
1466.964	-691.02
1467.836	-854.86
1468.709	750.75
1469.581	369.83
1470.455	-498.51
1471.329	-674.64
1472.203	103.59
1473.079	140.46
1473.954	-189.27
1474.831	-738.12
1475.707	171.18
1476.585	165.03
1477.463	-639.82
1478.341	-615.24
1479.22	99.5
1480.1	482.47
1480.98	-953.16
1481.861	-809.8
1482.742	541.86
1483.624	677.02
1484.506	-387.92
1485.389	-529.23
1486.273	269.48
1487.157	201.9
1488.041	-672.59
1488.926	-793.42
1489.812	459.94
1490.699	459.94
1491.585	-656.2
1492.473	-600.91
1493.361	-154.45
1494.249	318.63
1495.139	-385.87
1496.028	-553.8
1496.919	-41.81
1497.809	617.63
1498.701	-736.07
1499.593	-494.41
1500.485	240.81
1501.378	701.6
1502.272	-256.85
1503.166	-578.38
1504.061	861.34
1504.956	545.95
1505.852	-607.05
1506.749	-854.86
1507.646	638.11
1508.543	455.84
1509.442	-787.27
1510.34	-117.59
1511.24	1010.84
1512.14	292.01
1513.04	-643.92
1513.941	-758.6
1514.843	1211.54
1515.745	87.21
1516.648	-613.2
1517.551	-793.42
1518.455	-93.01
1519.359	-265.04
1520.264	-787.27
1521.17	-762.7
1522.076	210.09
1522.983	515.23
1523.89	-766.79
1524.798	-428.88
1525.706	369.83
1526.615	1367.19
1527.525	-785.23
1528.435	-568.14
1529.346	578.72
1530.257	103.59
1531.169	-357.2
1532.081	-817.99
1532.994	1035.42
1533.908	287.91
1534.822	-674.64
1535.737	-580.43
1536.652	427.17
1537.568	341.16
1538.484	-580.43
1539.401	-994.12
1540.319	834.72
1541.237	-54.1
1542.156	-711.5
1543.075	-709.45
1543.995	1066.14
1544.916	1111.19
1545.837	-750.41
1546.758	-707.4
1547.68	652.45
1548.603	658.59
1549.527	-559.95
1550.451	-805.71
1551.375	498.85
1552.3	765.09
1553.226	-871.24
1554.152	-697.16
1555.079	834.72
1556.006	390.31
1556.934	-504.65
1557.863	-508.75
1558.792	930.97
1559.722	87.21
1560.652	-551.76
1561.583	-926.54
1562.514	-9.05
1563.446	177.32
1564.379	-928.58
1565.312	-463.69
1566.246	758.94
1567.18	425.12
1568.115	-559.95
1569.051	-772.94
1569.987	869.53
1570.924	1074.33
1571.861	-879.43
1572.799	-502.61
1573.737	701.6
1574.676	390.31
1575.616	-613.2
1576.556	-674.64
1577.497	-45.91
1578.438	210.09
1579.38	-703.31
1580.323	-469.84
1581.266	439.46
1582.21	869.53
1583.154	-711.5
1584.099	-813.9
1585.044	552.1
1585.99	699.55
1586.937	-330.58
1587.884	-539.47
1588.832	314.53
1589.78	922.78
1590.729	-641.87
1591.679	-465.74
1592.629	418.98
1593.58	595.11
1594.531	-463.69
1595.483	-428.88
1596.435	138.41
1597.388	177.32
1598.342	-279.38
1599.296	-416.59
1600.251	548
1601.207	767.13
1602.163	-553.8
1603.119	-762.7
1604.077	787.61
1605.034	836.77
1605.993	-459.6
1606.952	-11.09
1607.911	316.58
1608.872	382.12
1609.832	-740.17
1610.794	-803.66
1611.756	717.98
1612.718	550.05
1613.681	-240.47
1614.645	-541.52
1615.609	822.43
1616.574	265.38
1617.54	-164.69
1618.506	-566.09
1619.472	779.42
1620.44	775.33
1621.408	-117.59
1622.376	-539.47
1623.345	451.75
1624.315	834.72
1625.285	-514.89
1626.256	-484.17
1627.227	464.04
1628.199	-76.63
1629.172	-408.4
1630.145	-453.45
1631.119	529.57
1632.094	1023.13
1633.069	-580.43
1634.044	-428.88
1635.02	302.25
1635.997	750.75
1636.975	-527.18
1637.953	-731.98
1638.931	1012.89
1639.911	132.26
1640.89	-725.83
1641.871	-645.96
1642.852	636.06
1643.833	531.62
1644.816	-795.47
1645.798	-908.1
1646.782	1008.8
1647.766	136.36
1648.75	-635.72
1649.736	-588.62
1650.721	29.87
1651.708	365.73
1652.695	-639.82
1653.682	-467.79
1654.671	513.19
1655.66	627.87
1656.649	-643.92
1657.639	-645.96
1658.63	-35.67
1659.621	283.81
1660.613	-904.01
1661.605	-854.86
1662.598	177.32
1663.592	187.56
1664.586	-863.05
1665.581	-772.94
1666.576	140.46
1667.572	455.84
1668.569	-705.35
1669.566	-645.96
1670.564	500.9
1671.563	799.9
1672.562	-631.63
1673.562	-297.81
1674.562	386.21
1675.563	466.08
1676.564	-396.11
1677.566	-510.8
1678.569	955.55
1679.572	-346.96
1680.576	-652.11
1681.581	-662.35
1682.586	218.28
1683.592	582.82
1684.598	-568.14
1685.605	-435.02
1686.613	627.87
1687.621	312.49
1688.63	-400.21
1689.639	-408.4
1690.649	169.13
1691.66	371.88
1692.671	-404.3
1693.683	-660.3
1694.696	154.79
1695.709	474.28
1696.722	-670.54
1697.737	-559.95
1698.752	81.07
1699.767	431.27
1700.783	-527.18
1701.8	-443.21
1702.818	367.78
1703.836	-39.76
1704.854	-832.33
1705.873	-602.96
1706.893	292.01
1707.914	431.27
1708.935	-660.3
1709.956	-650.06
1710.979	292.01
1712.002	447.65
1713.025	-629.58
1714.049	-486.22
1715.074	603.3
1716.099	560.29
1717.125	-772.94
1718.152	-713.55
1719.179	152.74
1720.207	672.93
1721.235	-150.36
1722.265	-150.36
1723.294	277.67
1724.325	150.7
1725.355	-494.41
1726.387	-500.56
1727.419	437.41
1728.452	545.95
1729.485	-449.36
1730.519	-699.21
1731.554	21.67
1732.589	474.28
1733.625	-772.94
1734.662	-682.83
1735.699	31.91
1736.736	750.75
1737.775	-672.59
1738.814	-568.14
1739.853	169.13
1740.894	251.05
1741.934	-506.7
1742.976	-637.77
1744.018	504.99
1745.061	318.63
1746.104	-672.59
1747.148	-617.29
1748.193	322.73
1749.238	441.51
1750.284	-488.27
1751.33	-748.36
1752.377	439.46
1753.425	1082.52
1754.473	-557.9
1755.522	-469.84
1756.572	797.85
1757.622	480.42
1758.673	-809.8
1759.724	-613.2
1760.776	640.16
1761.829	738.46
1762.882	-322.38
1763.936	-705.35
1764.991	169.13
1766.046	1023.13
1767.102	-412.5
1768.158	-815.94
1769.215	531.62
1770.273	513.19
1771.331	-478.03
1772.39	-705.35
1773.45	466.08
1774.51	464.04
1775.571	-789.32
1776.632	-150.36
1777.694	234.66
1778.757	459.94
1779.82	-432.97
1780.884	-478.03
1781.949	246.95
1783.014	570.53
1784.08	-875.34
1785.147	-623.44
1786.214	210.09
1787.282	140.46
1788.35	-355.15
1789.419	-349.01
1790.489	677.02
1791.559	400.55
1792.63	-609.1
1793.702	-387.92
1794.774	167.08
1795.847	580.77
1796.92	-371.54
1797.994	-449.36
1799.069	570.53
1800.144	1211.54
1801.22	-596.81
1802.297	-256.85
1803.374	54.44
1804.452	502.95
1805.531	-693.07
1806.61	-355.15
1807.69	611.49
1808.77	-7
1809.851	-535.37
1810.933	-883.53
1812.015	736.42
1813.098	107.69
1814.182	-580.43
1815.266	-451.41
1816.351	343.21
1817.437	472.23
1818.523	-555.85
1819.61	-480.08
1820.697	441.51
1821.785	1121.43
1822.874	-547.66
1823.963	-502.61
1825.053	314.53
1826.144	466.08
1827.235	-494.41
1828.327	-625.48
1829.42	402.6
1830.513	44.2
1831.607	-805.71
1832.701	-719.69
1833.796	357.54
1834.892	685.22
1835.989	-754.51
1837.086	-664.4
1838.183	308.39
1839.282	308.39
1840.381	-617.29
1841.48	-652.11
1842.581	398.5
1843.682	988.32
1844.783	-318.29
1845.885	-359.25
1846.988	697.5
1848.092	476.32
1849.196	-398.16
1850.301	-461.65
1851.406	74.92
1852.512	1033.37
1853.619	-590.67
1854.726	-656.2
1855.834	119.98
1856.943	687.26
1858.052	-617.29
1859.162	-525.13
1860.273	433.32
1861.384	783.52
1862.496	-596.81
1863.608	-643.92
1864.721	447.65
1865.835	355.49
1866.95	-682.83
1868.065	-693.07
1869.181	160.94
1870.297	693.41
1871.414	-281.43
1872.532	-754.51
1873.65	312.49
1874.769	259.24
1875.889	-705.35
1877.009	-248.66
1878.13	554.15
1879.252	840.86
1880.374	-525.13
1881.497	-609.1
1882.62	373.92
1883.745	296.1
1884.87	-770.89
1885.995	-848.71
1887.121	222.38
1888.248	130.22
1889.376	-766.79
1890.504	-674.64
1891.632	466.08
1892.762	230.57
1893.892	-600.91
1895.023	-449.36
1896.154	162.98
1897.286	212.14
1898.419	-648.01
1899.552	-553.8
1900.686	629.92
1901.821	531.62
1902.956	-641.87
1904.092	-527.18
1905.229	951.45
1906.366	644.26
1907.504	-562
1908.643	-723.79
1909.782	611.49
