Data from FLMT021711__12__16-31-19-722.txt Node

Date: Tue Nov 05 16:31:19 CET 2024
User: Etudiants TP
Spectrometer: FLMT02171
Trigger mode: 0
Integration Time (sec): 1.000000E-1
Scans to average: 5
Electric dark correction enabled: true
Nonlinearity correction enabled: false
Boxcar width: 15
XAxis mode: Wavelengths
Number of Pixels in Spectrum: 3648
>>>>>Begin Spectral Data<<<<<
194.658	-51.02
194.923	-49.99
195.188	-45.99
195.453	-44.58
195.717	-39.87
195.982	-38.76
196.247	-36.67
196.512	-38.16
196.777	-38.01
197.042	-35.79
197.307	-35.15
197.572	-30.69
197.837	-30.74
198.101	-28.69
198.366	-26.87
198.631	-25.24
198.896	-20.56
199.161	-14.96
199.425	-8.5
199.69	-1.46
199.955	-2.95
200.22	-4.31
200.484	-3.89
200.749	-4.03
201.014	-2.89
201.278	-3.26
201.543	-1.62
201.807	-2.25
202.072	-1.81
202.337	-2.53
202.601	-3.01
202.866	-4.2
203.13	-3.45
203.395	-5.06
203.659	-6.07
203.924	-8.78
204.189	-8.88
204.453	-8.88
204.717	-7.35
204.982	-6.16
205.246	-5.2
205.511	-5.25
205.775	-7.36
206.04	-3.57
206.304	-3.2
206.568	-1.53
206.833	-3.43
207.097	-2.8
207.361	-1.75
207.626	0.81
207.89	1.7
208.154	3.14
208.419	4
208.683	4.36
208.947	6.55
209.211	5.78
209.476	6.36
209.74	5.35
210.004	4.39
210.268	3.89
210.532	5.79
210.796	6.79
211.061	5.15
211.325	4.84
211.589	4.53
211.853	5.98
212.117	7.37
212.381	8.65
212.645	9.22
212.909	9.49
213.173	8.71
213.437	7.42
213.701	8.58
213.965	8.06
214.229	3.24
214.493	1.76
214.757	-0.16
215.021	1.54
215.285	4.54
215.549	6.41
215.813	3.81
216.077	3.08
216.34	5.58
216.604	4.75
216.868	5.06
217.132	4.96
217.396	4.46
217.659	5.85
217.923	3.93
218.187	4.32
218.451	3.75
218.714	2.69
218.978	3.17
219.242	7.25
219.505	9.63
219.769	11.34
220.033	10.55
220.296	11.06
220.56	11.52
220.824	9.53
221.087	10.66
221.351	10.55
221.614	10.78
221.878	12.19
222.142	11.89
222.405	14.16
222.669	17.64
222.932	14.74
223.196	12.88
223.459	10.68
223.722	11.69
223.986	11.41
224.249	10.39
224.513	10.2
224.776	10
225.04	9.42
225.303	8.59
225.566	9.12
225.83	9.09
226.093	10.57
226.356	9.51
226.62	8.13
226.883	8.45
227.146	8.24
227.409	6.37
227.673	4.02
227.936	2.39
228.199	1.65
228.462	-0.16
228.725	-1.33
228.989	-2.59
229.252	-1.73
229.515	1.79
229.778	-0.16
230.041	-1.83
230.304	-2.87
230.567	-2.58
230.83	-5.52
231.093	-2.53
231.356	-3.75
231.619	0.26
231.882	-1.82
232.145	-1.11
232.408	-1.57
232.671	-1.86
232.934	-2.06
233.197	-3.43
233.46	-4
233.723	-4.2
233.986	-5.42
234.249	-6.37
234.512	-4.44
234.775	-0.51
235.037	-1.5
235.3	-1.49
235.563	-0.91
235.826	-0.01
236.089	1.68
236.351	2.45
236.614	4.37
236.877	4.1
237.14	7.33
237.402	5.9
237.665	1.69
237.928	2.99
238.19	1.68
238.453	3.44
238.716	2.17
238.978	2.13
239.241	0.15
239.503	3.34
239.766	-0.07
240.029	-1.03
240.291	1.72
240.554	1.43
240.816	-0.65
241.079	-1.14
241.341	-1.47
241.604	-0.79
241.866	-1.42
242.129	-0.82
242.391	-0.28
242.653	-1.58
242.916	-1.67
243.178	-0.94
243.441	-0.33
243.703	-1.58
243.965	-3.29
244.228	-2.57
244.49	-2.76
244.752	-1.88
245.015	-0.94
245.277	0.53
245.539	-0.52
245.801	-1.17
246.064	-1.86
246.326	-1.85
246.588	-1.46
246.85	1.64
247.112	2.67
247.374	5.7
247.637	7.32
247.899	7.87
248.161	8.45
248.423	5.73
248.685	6.35
248.947	6.43
249.209	7.12
249.471	8.62
249.733	8.78
249.995	7.92
250.257	6.97
250.519	5.67
250.781	8.15
251.043	6.19
251.305	7.76
251.567	8.61
251.829	10.09
252.091	10.09
252.353	7.12
252.615	8.76
252.876	6.99
253.138	6.33
253.4	2.47
253.662	2.59
253.924	6.24
254.185	7.21
254.447	7.51
254.709	6.26
254.971	5.6
255.232	6.3
255.494	3.89
255.756	2.16
256.017	0.75
256.279	1.48
256.541	0.05
256.802	-0.48
257.064	0.6
257.326	-0.85
257.587	0.08
257.849	-0.47
258.11	1.61
258.372	2.67
258.633	4.8
258.895	3.49
259.156	3.74
259.418	2.12
259.679	-0.9
259.941	-3.18
260.202	-1.68
260.464	0.18
260.725	-0.7
260.987	-1.21
261.248	-1.03
261.509	-0.11
261.771	0.13
262.032	0.78
262.293	0.06
262.555	-0.3
262.816	-0.88
263.077	-2.95
263.338	-4.55
263.6	-4.08
263.861	-5.21
264.122	-4.74
264.383	-2.67
264.645	-0.56
264.906	-0.74
265.167	-0.28
265.428	-0.38
265.689	0.04
265.95	-0.65
266.211	-0.61
266.473	-1.19
266.734	-4.14
266.995	-5.12
267.256	-5.2
267.517	-4.32
267.778	-2.19
268.039	-0.8
268.3	-1.65
268.561	-3.34
268.822	-2.08
269.083	-3.47
269.344	-5.71
269.604	-6.09
269.865	-6.35
270.126	-9.81
270.387	-8.7
270.648	-7.77
270.909	-7.75
271.17	-7.31
271.43	-8.93
271.691	-10.49
271.952	-10.63
272.213	-9.05
272.473	-12.01
272.734	-11.41
272.995	-9.9
273.256	-9.57
273.516	-7.73
273.777	-9.38
274.038	-8.28
274.298	-10.62
274.559	-11.35
274.82	-8.38
275.08	-7.67
275.341	-6.61
275.601	-6.45
275.862	-7.92
276.122	-6.91
276.383	-6.88
276.643	-4.91
276.904	-5.4
277.164	-3.05
277.425	-2.78
277.685	0.48
277.946	0.31
278.206	2
278.467	3
278.727	2.46
278.987	2.51
279.248	1.7
279.508	1.99
279.768	2.97
280.029	4.1
280.289	2.17
280.549	1.71
280.81	0.78
281.07	-0.8
281.33	0.67
281.59	-0.18
281.851	1.21
282.111	0.59
282.371	-0.07
282.631	1.54
282.891	0.54
283.151	-0.47
283.412	-2.66
283.672	-3.11
283.932	-2.84
284.192	-3.47
284.452	-3.82
284.712	-7.02
284.972	-7.73
285.232	-9.38
285.492	-6.85
285.752	-9.19
286.012	-3.75
286.272	-3.09
286.532	-4.11
286.792	-2.54
287.052	-1.42
287.312	-0.78
287.571	-0.36
287.831	-0.17
288.091	-1.22
288.351	-0.19
288.611	2.92
288.871	2.81
289.13	3.38
289.39	-1.3
289.65	-0.55
289.91	-2.44
290.17	0.78
290.429	3.55
290.689	1.31
290.949	-0.33
291.208	1.21
291.468	4.2
291.728	3.81
291.987	5.22
292.247	3.91
292.506	5.65
292.766	9.06
293.026	7.72
293.285	9.13
293.545	11.37
293.804	11.49
294.064	8.3
294.323	6.39
294.583	7.04
294.842	7.13
295.102	8.34
295.361	8.16
295.621	7.44
295.88	8.96
296.139	8.36
296.399	7.27
296.658	2.9
296.917	3.77
297.177	1.53
297.436	3.83
297.695	3.74
297.955	5.41
298.214	3.15
298.473	3.85
298.732	5.6
298.992	7.76
299.251	7.99
299.51	5.13
299.769	6.07
300.028	5.5
300.287	6.67
300.547	7.28
300.806	5.18
301.065	8.05
301.324	8.3
301.583	3.61
301.842	2.26
302.101	1.33
302.36	1.11
302.619	0.64
302.878	0.01
303.137	-2.42
303.396	-1.71
303.655	0.49
303.914	-2.28
304.173	-1.92
304.432	-2.05
304.691	0.34
304.95	-2.87
305.208	0.82
305.467	0.54
305.726	-0.63
305.985	0.39
306.244	1.12
306.503	0.59
306.761	-0.54
307.02	-3.78
307.279	-3.86
307.537	-3.09
307.796	-4.89
308.055	-6.98
308.314	-6.27
308.572	-8.26
308.831	-6.65
309.09	-6.73
309.348	-4.39
309.607	-3.51
309.865	-1.59
310.124	-2.13
310.382	-0.45
310.641	-0.5
310.9	-1.84
311.158	-1.04
311.417	-1.6
311.675	-1.49
311.933	-0.17
312.192	1.77
312.45	2.17
312.709	2.84
312.967	3.29
313.226	4.04
313.484	3.51
313.742	3.24
314.001	1.73
314.259	-0.7
314.517	0.65
314.776	2.66
315.034	6.36
315.292	4.35
315.55	2.79
315.809	1.52
316.067	2.42
316.325	0.31
316.583	1.03
316.841	-0.95
317.1	-2.58
317.358	-6.57
317.616	-6.59
317.874	-7.24
318.132	-6.31
318.39	-6.49
318.648	-6.93
318.906	-7.52
319.164	-8.11
319.422	-7.64
319.68	-9.09
319.938	-9.03
320.196	-9.38
320.454	-8.78
320.712	-9.12
320.97	-8.07
321.228	-10.46
321.486	-8.87
321.744	-8.17
322.002	-7.59
322.26	-7.73
322.517	-8.46
322.775	-10.62
323.033	-12.58
323.291	-10.4
323.549	-9.19
323.806	-6.28
324.064	-4.58
324.322	-1.37
324.58	-2.72
324.837	-0.24
325.095	-1.76
325.353	-0.48
325.61	0.47
325.868	0.57
326.126	0.52
326.383	-0.04
326.641	-1.49
326.898	0.42
327.156	0.12
327.413	0.06
327.671	0.75
327.928	1.14
328.186	1.36
328.443	1.54
328.701	4.34
328.958	4.04
329.216	5.15
329.473	4.24
329.731	5.09
329.988	5.74
330.245	9.1
330.503	9.3
330.76	8.95
331.017	11.09
331.275	8.74
331.532	8.19
331.789	6.03
332.047	4.9
332.304	0.84
332.561	1.82
332.818	-0.25
333.076	1.94
333.333	3.18
333.59	3.05
333.847	2.89
334.104	2.24
334.361	1.77
334.618	2.41
334.876	1.05
335.133	0.3
335.39	-1.86
335.647	-1.38
335.904	-3.36
336.161	-5.18
336.418	-5.81
336.675	-9.39
336.932	-7.65
337.189	-8.72
337.446	-8.31
337.703	-9.49
337.96	-13.51
338.216	-14.19
338.473	-15.87
338.73	-14.58
338.987	-15.32
339.244	-11.89
339.501	-10.45
339.757	-10.08
340.014	-9.4
340.271	-7.53
340.528	-6.91
340.785	-4.25
341.041	-4.48
341.298	-6.89
341.555	-6.93
341.811	-6.82
342.068	-8.8
342.325	-9.22
342.581	-7.47
342.838	-6.57
343.094	-4.33
343.351	-3.34
343.608	-5.55
343.864	-2.59
344.121	-1.63
344.377	-1.96
344.634	-1.9
344.89	-3.01
345.147	-2.84
345.403	-3.27
345.66	-2.76
345.916	-0.27
346.172	-3.14
346.429	-3.49
346.685	-4.3
346.942	-3.82
347.198	-7.07
347.454	-7.93
347.711	-7.54
347.967	-10.34
348.223	-10.83
348.48	-11.53
348.736	-8.64
348.992	-8.5
349.248	-6.42
349.504	-7.28
349.761	-8.2
350.017	-6.95
350.273	-6.16
350.529	-7.24
350.785	-7.13
351.041	-8.95
351.297	-8.62
351.554	-9.08
351.81	-10.83
352.066	-12.27
352.322	-11.63
352.578	-10.97
352.834	-12.26
353.09	-12.59
353.346	-13.09
353.602	-14.7
353.858	-14.3
354.114	-14.44
354.369	-13.6
354.625	-11.99
354.881	-14.29
355.137	-12.67
355.393	-13.21
355.649	-12.08
355.905	-10.55
356.16	-9.94
356.416	-9.16
356.672	-15.16
356.928	-15.63
357.183	-15.71
357.439	-15.86
357.695	-16.42
357.951	-13.81
358.206	-14.72
358.462	-14.81
358.718	-16.12
358.973	-14.94
359.229	-14.38
359.484	-13.22
359.74	-11.46
359.996	-10.89
360.251	-8.62
360.507	-9.79
360.762	-9.07
361.018	-7.31
361.273	-7.25
361.529	-6.01
361.784	-6.07
362.04	-3.28
362.295	-4.29
362.55	-4.99
362.806	-1.46
363.061	-1.9
363.316	-1.07
363.572	-0.2
363.827	1.55
364.082	0
364.338	-0.29
364.593	0.52
364.848	0.64
365.104	-0.63
365.359	1.68
365.614	2.97
365.869	0.78
366.124	2.08
366.38	1.85
366.635	3.37
366.89	4.05
367.145	3.54
367.4	5.74
367.655	5.17
367.91	5.79
368.165	4.28
368.42	3.23
368.675	4.29
368.93	4.51
369.185	4.22
369.44	4.36
369.695	4.36
369.95	2.24
370.205	2.19
370.46	1.4
370.715	0.21
370.97	1.34
371.225	0.88
371.48	-0.46
371.734	-1.4
371.989	-0.85
372.244	-0.6
372.499	1.38
372.754	0.61
373.008	-0.71
373.263	-3
373.518	-1.5
373.773	-1.57
374.027	-2.6
374.282	-0.85
374.537	-0.11
374.791	1.36
375.046	0.73
375.301	-0.8
375.555	-2.72
375.81	-2.06
376.064	-1.1
376.319	0.82
376.573	-0.69
376.828	-3.42
377.082	-2.77
377.337	-4.05
377.591	-5.87
377.846	-5.41
378.1	-3.6
378.355	-3.15
378.609	-4.18
378.863	-6.96
379.118	-5.62
379.372	-6.2
379.627	-7.57
379.881	-7.6
380.135	-8.02
380.389	-9.5
380.644	-8.2
380.898	-7.73
381.152	-6.59
381.407	-8.3
381.661	-7.06
381.915	-6.5
382.169	-8.04
382.423	-10.01
382.677	-12.93
382.932	-11.82
383.186	-11.03
383.44	-9.63
383.694	-8.3
383.948	-11.72
384.202	-12.62
384.456	-10.1
384.71	-9.07
384.964	-9
385.218	-7.92
385.472	-5.62
385.726	-5.85
385.98	-5.4
386.234	-5.24
386.488	-7.33
386.742	-7.32
386.996	-8.81
387.249	-8.31
387.503	-7.24
387.757	-7.7
388.011	-6.96
388.265	-5.68
388.518	-5.77
388.772	-4.75
389.026	-4.57
389.28	-4.54
389.533	-6.48
389.787	-4.49
390.041	-5.08
390.295	-4.46
390.548	-5.29
390.802	-3.25
391.055	-4.11
391.309	-4.13
391.563	-6.39
391.816	-4.03
392.07	-5.21
392.323	-4.98
392.577	-3.66
392.83	-3.18
393.084	0.44
393.337	0.95
393.591	1.5
393.844	2.31
394.098	4.86
394.351	8.23
394.604	11.54
394.858	12.64
395.111	12.26
395.364	11.71
395.618	13.81
395.871	12.55
396.124	11.53
396.378	12.18
396.631	12.78
396.884	10.85
397.137	10.98
397.391	12.8
397.644	10.18
397.897	9.95
398.15	10.86
398.403	13.83
398.657	12.16
398.91	11.61
399.163	11.37
399.416	11.64
399.669	10.29
399.922	10.38
400.175	8.62
400.428	8.31
400.681	9.42
400.934	8.7
401.187	10.33
401.44	12.04
401.693	10.18
401.946	7.67
402.199	5.3
402.452	4.1
402.704	1.54
402.957	2.72
403.21	3.95
403.463	2.82
403.716	3.61
403.969	4.08
404.221	3.98
404.474	4.41
404.727	7.21
404.98	8.08
405.232	7.23
405.485	9.12
405.738	11.96
405.99	13.21
406.243	12.91
406.496	13.75
406.748	14.97
407.001	13.04
407.253	13.66
407.506	14.16
407.759	15.32
408.011	14.08
408.264	13.85
408.516	13.71
408.769	9.02
409.021	8.57
409.274	6.76
409.526	8.09
409.778	7.62
410.031	9.52
410.283	8.3
410.536	12.99
410.788	10.65
411.04	9.7
411.293	11.4
411.545	11.61
411.797	11.46
412.049	10.48
412.302	11.86
412.554	13.52
412.806	12.54
413.058	11.75
413.311	11.75
413.563	10.11
413.815	7.5
414.067	6.25
414.319	5.67
414.571	5.87
414.823	6.06
415.075	5.05
415.328	5.5
415.58	7.51
415.832	9.73
416.084	10.31
416.336	6.88
416.588	10.03
416.84	7.37
417.091	9.27
417.343	7.06
417.595	8.77
417.847	9.17
418.099	12.02
418.351	10.3
418.603	12.52
418.855	13.79
419.106	13.95
419.358	13.77
419.61	14.19
419.862	15.98
420.114	13.35
420.365	12.21
420.617	12.23
420.869	12.01
421.12	11.53
421.372	11.63
421.624	13.09
421.875	13.28
422.127	11.77
422.379	11.07
422.63	14.02
422.882	13.08
423.133	13.01
423.385	12.98
423.636	12.74
423.888	14.04
424.139	17.54
424.391	15.42
424.642	14.9
424.894	13.39
425.145	13.05
425.396	11.89
425.648	13.68
425.899	10.35
426.151	10.31
426.402	9.25
426.653	9.73
426.905	7.64
427.156	4.75
427.407	4.18
427.658	2.45
427.91	2.64
428.161	1.94
428.412	3.55
428.663	3.96
428.914	5.12
429.166	5.32
429.417	4.77
429.668	3.97
429.919	2.93
430.17	2.47
430.421	1.96
430.672	3.78
430.923	4.23
431.174	3.6
431.425	6.22
431.676	10.28
431.927	13.53
432.178	22.89
432.429	29.08
432.68	34.27
432.931	41.56
433.182	46.47
433.433	46.49
433.683	49.47
433.934	50.6
434.185	51.04
434.436	49.62
434.687	52.07
434.937	55.23
435.188	53.53
435.439	52.78
435.69	53.94
435.94	53.5
436.191	53.55
436.442	54.36
436.692	52.51
436.943	51.23
437.194	51.26
437.444	53.22
437.695	56.22
437.945	57.05
438.196	55.97
438.447	56.53
438.697	56.81
438.948	55.19
439.198	50.43
439.449	42.42
439.699	37
439.949	29.93
440.2	23.6
440.45	18.92
440.701	11.75
440.951	7.46
441.201	4.89
441.452	3.18
441.702	2.45
441.952	3.63
442.203	4.04
442.453	1.82
442.703	2.08
442.953	3.48
443.204	5.22
443.454	2.58
443.704	2.12
443.954	-0.42
444.204	-1.07
444.455	0.28
444.705	1.3
444.955	1.31
445.205	1.27
445.455	-1.02
445.705	-2.77
445.955	-2.42
446.205	-3.2
446.455	-3.34
446.705	-2.65
446.955	-1.12
447.205	0.01
447.455	1.42
447.705	-0.36
447.955	-1.59
448.205	-0.71
448.454	0.34
448.704	0.59
448.954	-0.04
449.204	-0.27
449.454	-1.13
449.704	-4.31
449.953	-5.04
450.203	-4.03
450.453	-5.4
450.703	-4.17
450.952	-4.58
451.202	-3.43
451.452	-3.89
451.701	-1.53
451.951	1.29
452.201	0.39
452.45	-0.56
452.7	-0.52
452.949	-1.21
453.199	-1.39
453.448	1.22
453.698	2.2
453.947	1.65
454.197	-0.08
454.446	-0.85
454.696	0.39
454.945	-0.86
455.195	-2.84
455.444	-2.13
455.693	0.61
455.943	-1.58
456.192	-0.69
456.442	0.06
456.691	0.36
456.94	0.24
457.189	-1.36
457.439	1.78
457.688	3.74
457.937	3.75
458.186	3.83
458.436	5.17
458.685	5.74
458.934	4.93
459.183	5.65
459.432	7.21
459.681	7.59
459.93	7.41
460.179	8.83
460.429	7.73
460.678	10.25
460.927	13.13
461.176	13.08
461.425	12.01
461.674	14.45
461.923	15.92
462.172	15.91
462.42	14.82
462.669	17.69
462.918	18.48
463.167	18.25
463.416	17.41
463.665	19.13
463.914	19.32
464.162	18.04
464.411	18.85
464.66	19.96
464.909	20.73
465.158	21.6
465.406	20.68
465.655	21.83
465.904	23.47
466.152	22.76
466.401	22.38
466.65	25.43
466.898	23.61
467.147	20.33
467.395	19.2
467.644	21.58
467.893	19.86
468.141	19.89
468.39	16.51
468.638	14.34
468.887	12.54
469.135	12.52
469.384	12.11
469.632	11.64
469.88	11.58
470.129	12.48
470.377	9.39
470.626	11.49
470.874	12.24
471.122	13.52
471.371	11.06
471.619	10.85
471.867	12.07
472.115	11.67
472.364	9.85
472.612	12.41
472.86	9.64
473.108	10.95
473.356	11.34
473.605	11.28
473.853	8.24
474.101	7.42
474.349	4.39
474.597	6.58
474.845	6.8
475.093	5.81
475.341	2.46
475.589	4.09
475.837	4.95
476.085	6.54
476.333	5.81
476.581	8
476.829	7.33
477.077	8.91
477.325	9.48
477.573	11.18
477.821	9.18
478.069	11.18
478.317	11.49
478.564	13.67
478.812	11.78
479.06	12.73
479.308	11.54
479.555	12.65
479.803	12.59
480.051	15.36
480.299	14.25
480.546	16.96
480.794	15.57
481.042	17.18
481.289	18.08
481.537	22.23
481.784	23.54
482.032	29.1
482.28	31.03
482.527	32.61
482.775	36.24
483.022	40.46
483.27	43.79
483.517	49.29
483.765	52.67
484.012	56.79
484.259	56.81
484.507	61.94
484.754	64.11
485.002	66.18
485.249	68.14
485.496	74.21
485.744	76
485.991	77.46
486.238	77.58
486.486	82.16
486.733	84.26
486.98	87.93
487.227	88.3
487.474	90.81
487.722	93.95
487.969	93.8
488.216	93.61
488.463	95.45
488.71	94.93
488.957	94.99
489.204	94.99
489.451	96.57
489.699	94.96
489.946	93.33
490.193	92.04
490.44	90.09
490.687	89.68
490.934	86.64
491.18	82.98
491.427	81.67
491.674	80.24
491.921	79.63
492.168	77.45
492.415	73.75
492.662	73.06
492.909	71.86
493.155	69.11
493.402	66.44
493.649	63.49
493.896	64.08
494.142	59.54
494.389	59.04
494.636	55.54
494.883	53.71
495.129	51.23
495.376	48.56
495.623	50.08
495.869	50.18
496.116	49.82
496.362	48.93
496.609	49.08
496.855	51.75
497.102	48.53
497.348	46.68
497.595	45.5
497.841	47.25
498.088	45.2
498.334	42.75
498.581	40.39
498.827	38.73
499.074	38.58
499.32	38.26
499.566	40.26
499.813	38.71
500.059	37.16
500.305	36.06
500.552	34.08
500.798	33.39
501.044	34.95
501.29	33.05
501.537	29.27
501.783	30.87
502.029	31.33
502.275	30.49
502.521	26.33
502.767	26.95
503.013	28.43
503.26	25.06
503.506	22.21
503.752	21.17
503.998	18.99
504.244	19.3
504.49	15.77
504.736	17.17
504.982	16.08
505.228	17.3
505.474	16.87
505.72	16.67
505.966	16.1
506.211	17.98
506.457	17.77
506.703	14.7
506.949	14.21
507.195	12.37
507.441	10.3
507.686	11.54
507.932	11.42
508.178	13.64
508.424	10.91
508.669	9.69
508.915	10.38
509.161	11.2
509.406	11.08
509.652	11.42
509.898	13.25
510.143	14.63
510.389	13.79
510.634	9.97
510.88	12.18
511.125	14.3
511.371	14.42
511.616	15.25
511.862	11.28
512.107	8.94
512.353	9.7
512.598	10.81
512.844	8.66
513.089	7.08
513.335	7.94
513.58	8.23
513.825	9.03
514.071	8.41
514.316	9.35
514.561	9.91
514.806	8.27
515.052	10.8
515.297	9.72
515.542	11.23
515.787	11.38
516.033	13.17
516.278	13.95
516.523	13.27
516.768	13.86
517.013	11.86
517.258	10.04
517.503	9.87
517.748	10.83
517.993	9.62
518.238	9.77
518.483	8.27
518.728	6.42
518.973	5.75
519.218	5.21
519.463	5.78
519.708	5.63
519.953	4.87
520.198	4.44
520.443	6.11
520.688	7.93
520.933	8.45
521.177	6.99
521.422	5.24
521.667	7.3
521.912	6.87
522.157	3.63
522.401	6.64
522.646	5.52
522.891	6.3
523.135	5.74
523.38	5.33
523.625	4.86
523.869	6.07
524.114	6.49
524.358	5.74
524.603	6.51
524.848	4.93
525.092	3.59
525.337	5.23
525.581	6.46
525.826	8.16
526.07	8.54
526.315	10.24
526.559	9.08
526.803	9.23
527.048	13.26
527.292	14.59
527.537	13.58
527.781	13.33
528.025	11.89
528.269	13.6
528.514	13.56
528.758	13.52
529.002	13.62
529.247	16.1
529.491	16.16
529.735	20.91
529.979	20.61
530.223	20.99
530.467	20.03
530.712	20.4
530.956	20.58
531.2	20.55
531.444	19.41
531.688	23.42
531.932	23.25
532.176	24.66
532.42	27.3
532.664	30.31
532.908	30.53
533.152	31.7
533.396	33.63
533.64	35.62
533.884	35.71
534.128	39.35
534.371	42.88
534.615	46.85
534.859	49.98
535.103	55.89
535.347	61.37
535.59	68.62
535.834	71.69
536.078	78.39
536.322	87.94
536.565	101.56
536.809	111.72
537.053	127.77
537.296	144.81
537.54	165.24
537.784	190.14
538.027	218.3
538.271	247.1
538.514	276.99
538.758	309.37
539.001	339.43
539.245	366.77
539.488	395.96
539.732	424.54
539.975	450.3
540.219	476.1
540.462	500.1
540.706	525
540.949	546.26
541.192	567.76
541.436	595.75
541.679	622.42
541.922	651.28
542.166	678.64
542.409	711.89
542.652	745.99
542.895	782.55
543.139	813.48
543.382	844.22
543.625	867.51
543.868	888.04
544.111	899.08
544.354	908.17
544.598	911.61
544.841	911.95
545.084	906.73
545.327	895.95
545.57	882.51
545.813	866.84
546.056	846.86
546.299	826.62
546.542	807.87
546.785	789.78
547.028	769.64
547.271	749.6
547.514	730.46
547.756	709.89
547.999	691.32
548.242	672.93
548.485	653.12
548.728	634.51
548.971	609.22
549.213	587.74
549.456	559.41
549.699	529.81
549.942	496.78
550.184	460.11
550.427	421.27
550.67	386.86
550.912	351.36
551.155	324.25
551.398	296.4
551.64	274.76
551.883	254.1
552.125	235.06
552.368	217.58
552.61	199.99
552.853	188.1
553.095	174.44
553.338	160.56
553.58	149.78
553.823	136.94
554.065	128.02
554.308	115.4
554.55	106.01
554.792	94.97
555.035	87.54
555.277	79.71
555.519	73.82
555.762	65.43
556.004	61.31
556.246	53.88
556.488	51.24
556.731	43.48
556.973	40.67
557.215	36.16
557.457	33.83
557.699	32.9
557.941	28.92
558.183	25.75
558.426	26.08
558.668	21.94
558.91	22.08
559.152	21
559.394	18.76
559.636	19.63
559.878	18.85
560.12	17.44
560.362	17.36
560.604	16.05
560.845	16.5
561.087	15.48
561.329	17.61
561.571	14.12
561.813	14.6
562.055	13.78
562.297	15.59
562.538	14.52
562.78	15.54
563.022	12.79
563.264	13.38
563.505	12.31
563.747	13.07
563.989	12.16
564.23	12.23
564.472	10.85
564.714	11.78
564.955	11.25
565.197	6.65
565.438	7.87
565.68	10.69
565.921	8.78
566.163	9.06
566.404	7.08
566.646	6.84
566.887	7.67
567.129	8.19
567.37	6.09
567.612	8.15
567.853	4.67
568.094	5.63
568.336	3.8
568.577	3.86
568.818	3.14
569.06	2.14
569.301	0.85
569.542	0.67
569.783	0.97
570.025	1.22
570.266	2.48
570.507	4.54
570.748	5.43
570.989	5.99
571.23	7.79
571.472	6.59
571.713	6.01
571.954	5.55
572.195	4.54
572.436	4.96
572.677	8.35
572.918	9.75
573.159	9.02
573.4	10.22
573.641	12.36
573.882	15.68
574.123	16.23
574.364	14.86
574.604	15.91
574.845	16.93
575.086	19.22
575.327	22.26
575.568	23.88
575.809	26.33
576.049	27.72
576.29	28.99
576.531	34.48
576.771	39.08
577.012	42.7
577.253	44.65
577.494	46.56
577.734	47.31
577.975	48.88
578.215	49.98
578.456	51.13
578.697	52.92
578.937	55.53
579.178	56.61
579.418	58.35
579.659	60
579.899	60.01
580.14	62.14
580.38	62.39
580.62	62.97
580.861	66.58
581.101	65.99
581.342	66.75
581.582	65.67
581.822	68.43
582.063	68.88
582.303	70.85
582.543	70.5
582.783	72.74
583.024	74.55
583.264	76.94
583.504	76.74
583.744	77.96
583.984	77.88
584.224	78.31
584.465	77.73
584.705	78.55
584.945	77.79
585.185	79.1
585.425	80.53
585.665	80.19
585.905	79.26
586.145	79.11
586.385	76.8
586.625	76.94
586.865	75.38
587.105	73.93
587.345	73.06
587.585	70.56
587.824	69.1
588.064	68.47
588.304	65.27
588.544	64.91
588.784	61.65
589.024	61.52
589.263	60.75
589.503	58.24
589.743	58.52
589.982	57.63
590.222	57.52
590.462	54.84
590.701	53.08
590.941	53.84
591.181	52.05
591.42	49.23
591.66	48.1
591.899	49.82
592.139	47.59
592.378	48.18
592.618	44.55
592.857	41.41
593.097	40.2
593.336	39.92
593.576	37.42
593.815	38.52
594.055	39.22
594.294	38.63
594.533	38.47
594.773	37.27
595.012	37.74
595.251	38.13
595.491	39.82
595.73	40.52
595.969	41.41
596.208	41.73
596.447	44.75
596.687	44.47
596.926	43.66
597.165	40.47
597.404	41.47
597.643	37.74
597.882	35.71
598.121	33.54
598.36	32.82
598.599	31.99
598.838	32.08
599.077	29.66
599.316	27.02
599.555	25.47
599.794	24.4
600.033	25.62
600.272	27.37
600.511	24.98
600.75	24.38
600.989	27.47
601.228	26.95
601.466	25.81
601.705	27.04
601.944	27.54
602.183	28.82
602.422	28.08
602.66	26.24
602.899	23.99
603.138	24.84
603.376	23.34
603.615	23.63
603.854	21.24
604.092	21.49
604.331	23.02
604.569	23.98
604.808	22.79
605.047	23.37
605.285	24.55
605.524	24.87
605.762	24.06
606	26.4
606.239	27.35
606.477	29.22
606.716	29.87
606.954	35.69
607.193	41.32
607.431	47.86
607.669	56.87
607.908	71.59
608.146	88.56
608.384	100.48
608.622	115.11
608.861	127.06
609.099	138.04
609.337	146.43
609.575	155.62
609.813	164.9
610.052	171.74
610.29	174.57
610.528	178.89
610.766	183.27
611.004	188.74
611.242	192.67
611.48	195.53
611.718	196.19
611.956	198.17
612.194	200.07
612.432	202.53
612.67	203.23
612.908	206.74
613.146	207.2
613.384	206.66
613.621	205.37
613.859	205.98
614.097	204.98
614.335	200.98
614.573	196.94
614.811	189.68
615.048	180.15
615.286	167.6
615.524	152.08
615.761	136.31
615.999	123.09
616.237	111.7
616.474	102.37
616.712	94.1
616.95	84.98
617.187	75.99
617.425	71.67
617.662	68.84
617.9	61.65
618.137	56.56
618.375	50
618.612	43.8
618.85	41.94
619.087	40.87
619.325	39.47
619.562	35.98
619.799	34.45
620.037	33.3
620.274	30.18
620.511	30.54
620.749	28.19
620.986	26.83
621.223	24.51
621.461	23.75
621.698	25.09
621.935	22.9
622.172	21.33
622.409	21.39
622.647	21.28
622.884	19.79
623.121	21.9
623.358	20.92
623.595	21.58
623.832	20.73
624.069	20.14
624.306	20.72
624.543	22.73
624.78	22.3
625.017	21.49
625.254	23
625.491	24.07
625.728	25.87
625.965	26.02
626.202	24.4
626.438	24.47
626.675	23.69
626.912	25.32
627.149	25.39
627.386	25.21
627.622	25.02
627.859	24.84
628.096	25.89
628.333	27.08
628.569	28.31
628.806	29.85
629.043	28.96
629.279	30.4
629.516	31.84
629.752	31.13
629.989	31.26
630.225	30.53
630.462	30.82
630.699	30.39
630.935	28.53
631.171	28.1
631.408	26.85
631.644	24.93
631.881	21.52
632.117	19.15
632.354	20.33
632.59	19.1
632.826	19.75
633.063	18.59
633.299	19.64
633.535	19.15
633.771	17.82
634.008	19.12
634.244	18.13
634.48	14.9
634.716	15.5
634.953	13.22
635.189	12.74
635.425	12.67
635.661	13.07
635.897	11.4
636.133	9.45
636.369	7.48
636.605	3.7
636.841	2.97
637.077	2.5
637.313	2.34
637.549	1.63
637.785	0.09
638.021	-0.37
638.257	-1.74
638.493	-1.6
638.729	-2.48
638.965	-0.84
639.2	2.26
639.436	2.47
639.672	0.97
639.908	-1.06
640.144	1.16
640.379	2.28
640.615	0.7
640.851	1.44
641.086	2.14
641.322	0.15
641.558	0.54
641.793	2.49
642.029	1.01
642.264	1.09
642.5	0.12
642.736	-2.96
642.971	-2.82
643.207	-5.18
643.442	-6.09
643.678	-5.5
643.913	-4.89
644.148	-4.86
644.384	-4.18
644.619	-4.69
644.855	-2.49
645.09	-1.51
645.325	-2.03
645.561	-0.12
645.796	-1.7
646.031	1.64
646.266	0.82
646.502	-0.91
646.737	1.1
646.972	0.53
647.207	1.79
647.442	-1.63
647.678	-3.53
647.913	-1.32
648.148	-0.69
648.383	-1.4
648.618	-0.93
648.853	-0.35
649.088	1.86
649.323	3.44
649.558	3.96
649.793	5.51
650.028	6.88
650.263	4.93
650.498	7.62
650.733	8.73
650.968	7.15
651.202	10.92
651.437	9.54
651.672	7.46
651.907	7.11
652.142	8.45
652.376	8.43
652.611	10.81
652.846	11.19
653.081	11.42
653.315	9.97
653.55	9.66
653.785	8.59
654.019	8.53
654.254	7.85
654.488	8.56
654.723	6.06
654.958	5.08
655.192	4.39
655.427	1.59
655.661	2.2
655.896	4.2
656.13	5.95
656.364	2.24
656.599	1.97
656.833	4.36
657.068	5.67
657.302	5.27
657.536	4.62
657.771	5.87
658.005	5.43
658.239	7.2
658.474	3.87
658.708	4.43
658.942	4.82
659.176	4.7
659.41	2.15
659.645	1.69
659.879	-0.51
660.113	-2.7
660.347	-2.69
660.581	-4.49
660.815	-4.65
661.049	-5.37
661.283	-7.62
661.517	-8.14
661.751	-9.74
661.985	-9.83
662.219	-8.29
662.453	-9.86
662.687	-8.45
662.921	-10.07
663.155	-11.18
663.389	-16.4
663.622	-17.12
663.856	-16.35
664.09	-18.71
664.324	-20.67
664.558	-19.38
664.791	-19.79
665.025	-22.79
665.259	-22.66
665.492	-23.86
665.726	-22.2
665.96	-22.13
666.193	-23.7
666.427	-23.75
666.661	-25.9
666.894	-27.49
667.128	-26.67
667.361	-24.67
667.595	-25.47
667.828	-24.46
668.062	-25.2
668.295	-24.66
668.529	-22.82
668.762	-21.55
668.995	-20.42
669.229	-16.7
669.462	-17.42
669.695	-16.97
669.929	-18.54
670.162	-17.32
670.395	-18.17
670.629	-17.6
670.862	-16.52
671.095	-19.83
671.328	-19.19
671.561	-21.62
671.795	-21.14
672.028	-20.58
672.261	-18.92
672.494	-17.78
672.727	-18.88
672.96	-17.03
673.193	-16.38
673.426	-12.46
673.659	-11.19
673.892	-10.59
674.125	-10.53
674.358	-11.3
674.591	-11.75
674.824	-12.25
675.057	-13.9
675.29	-13.84
675.523	-12.35
675.755	-13.29
675.988	-13.56
676.221	-11.87
676.454	-14.25
676.687	-12.36
676.919	-12.92
677.152	-12.77
677.385	-13.97
677.617	-13.41
677.85	-12.06
678.083	-10.94
678.315	-7.69
678.548	-7.99
678.78	-8.26
679.013	-9.21
679.246	-9.21
679.478	-8.26
679.711	-10.15
679.943	-7.6
680.175	-9.84
680.408	-7.71
680.64	-11.28
680.873	-11.02
681.105	-9.07
681.338	-5.69
681.57	-6.35
681.802	-5.72
682.034	-4.94
682.267	-1.68
682.499	-0.9
682.731	-2.77
682.964	-4.04
683.196	-4.98
683.428	-7.36
683.66	-7.56
683.892	-4.87
684.124	-3.44
684.356	-0.56
684.589	0.05
684.821	-1.57
685.053	-1.56
685.285	-2.4
685.517	-2.48
685.749	-2.18
685.981	0.54
686.213	0.7
686.445	1.74
686.676	0.56
686.908	0.88
687.14	-0.47
687.372	-0.11
687.604	-3.51
687.836	-1.97
688.068	-1.9
688.299	-1.58
688.531	-4.34
688.763	-0.87
688.995	-2.41
689.226	0.24
689.458	-2.51
689.69	-2.45
689.921	-3.65
690.153	-3.89
690.384	-3.12
690.616	-2.83
690.848	-1.73
691.079	-5.68
691.311	-6.8
691.542	-9.81
691.774	-10.69
692.005	-8.17
692.237	-5.52
692.468	-5.85
692.699	-5.7
692.931	-5.68
693.162	-7.74
693.393	-8.42
693.625	-9.46
693.856	-9.83
694.087	-9.54
694.319	-9.15
694.55	-8.97
694.781	-10.05
695.012	-9.5
695.243	-11.4
695.475	-12.57
695.706	-11.5
695.937	-12.57
696.168	-12.69
696.399	-15.06
696.63	-15.16
696.861	-15.28
697.092	-11.32
697.323	-8.43
697.554	-7.04
697.785	-6.67
698.016	-6.33
698.247	-5.87
698.478	-4.73
698.709	-1.79
698.94	-1.41
699.171	-1.21
699.401	-4.22
699.632	-3.03
699.863	-5.06
700.094	-5.12
700.325	-2.36
700.555	-0.26
700.786	1.19
701.017	1.69
701.247	2.23
701.478	2.67
701.709	3.23
701.939	3.77
702.17	4.78
702.401	7.53
702.631	8.73
702.862	7.19
703.092	5.53
703.323	7.32
703.553	9.21
703.784	10.5
704.014	10.61
704.244	8.48
704.475	8.39
704.705	8.11
704.936	9.14
705.166	9.17
705.396	10.22
705.627	10.98
705.857	10.71
706.087	13.42
706.317	11.09
706.548	9.65
706.778	9.6
707.008	10.28
707.238	10.77
707.468	10.05
707.698	8.37
707.928	7.37
708.158	6.22
708.389	5.39
708.619	4.54
708.849	3.32
709.079	5.6
709.309	4.27
709.539	2.21
709.768	1.44
709.998	3.68
710.228	3.41
710.458	3.06
710.688	0.12
710.918	0.68
711.148	-0.37
711.378	-1.13
711.607	-2.2
711.837	-1.7
712.067	-2.92
712.297	-4.29
712.526	-5.23
712.756	-4.95
712.986	-7.79
713.215	-10.95
713.445	-9.89
713.674	-9.12
713.904	-9.69
714.134	-7.09
714.363	-8.17
714.593	-9.32
714.822	-9.14
715.052	-9.41
715.281	-7.38
715.511	-8.38
715.74	-8.86
715.969	-9.69
716.199	-12.12
716.428	-12.15
716.657	-13.02
716.887	-11.84
717.116	-14.3
717.345	-12.26
717.575	-13.3
717.804	-12.65
718.033	-15.02
718.262	-14.84
718.492	-14.1
718.721	-13.41
718.95	-13.65
719.179	-14.22
719.408	-13.46
719.637	-16.12
719.866	-17.61
720.095	-16.65
720.324	-15.97
720.553	-18.2
720.782	-19.81
721.011	-19.58
721.24	-22.38
721.469	-22.86
721.698	-22.47
721.927	-22.58
722.156	-23.78
722.385	-25.81
722.613	-22.8
722.842	-22.31
723.071	-20.12
723.3	-18.62
723.529	-19.46
723.757	-19.54
723.986	-21.96
724.215	-21.17
724.443	-21.39
724.672	-18.67
724.901	-17.44
725.129	-14.25
725.358	-12.43
725.586	-14.57
725.815	-14.9
726.043	-15.6
726.272	-16.85
726.5	-17.54
726.729	-17
726.957	-20.05
727.186	-20.56
727.414	-20.47
727.642	-19.79
727.871	-17.6
728.099	-18.86
728.327	-19.58
728.556	-19.05
728.784	-19.22
729.012	-20.06
729.241	-17.71
729.469	-17.54
729.697	-19.81
729.925	-18.27
730.153	-19.47
730.381	-19.15
730.61	-18.15
730.838	-19.79
731.066	-18.37
731.294	-18.84
731.522	-20.42
731.75	-23.78
731.978	-25.1
732.206	-26.6
732.434	-28.15
732.662	-26.33
732.89	-28.07
733.118	-29.3
733.346	-28.99
733.573	-27.24
733.801	-26.25
734.029	-19.84
734.257	-19.42
734.485	-17.84
734.712	-16
734.94	-18.17
735.168	-14.67
735.396	-13.35
735.623	-13.93
735.851	-12.08
736.078	-11.64
736.306	-10.92
736.534	-10.97
736.761	-10.11
736.989	-12.19
737.216	-12.85
737.444	-14.01
737.671	-13.39
737.899	-9.46
738.126	-10.11
738.354	-9.45
738.581	-9.4
738.809	-9.93
739.036	-10.59
739.263	-11.35
739.491	-12.77
739.718	-12.13
739.945	-8.65
740.173	-7.83
740.4	-7.15
740.627	-8.02
740.854	-7.43
741.081	-9.58
741.309	-10.43
741.536	-12.76
741.763	-14.7
741.99	-12.41
742.217	-13.3
742.444	-14.12
742.671	-12.47
742.898	-14.68
743.125	-15.79
743.352	-18.32
743.579	-17.61
743.806	-16.92
744.033	-15.49
744.26	-14.07
744.487	-14.76
744.714	-15.5
744.941	-16.88
745.167	-14.47
745.394	-15.25
745.621	-15.07
745.848	-12.91
746.075	-11.3
746.301	-8.04
746.528	-5.12
746.755	-6.88
746.981	-7.5
747.208	-6.22
747.435	-5.15
747.661	-5.06
747.888	-5.13
748.114	-7.28
748.341	-5.26
748.567	-2.68
748.794	-3.53
749.02	-4.32
749.247	-6.44
749.473	-7.52
749.7	-7.84
749.926	-7.92
750.152	-5.07
750.379	-4.64
750.605	-4.8
750.831	-5.88
751.058	-6.71
751.284	-8.31
751.51	-6.11
751.737	-5.03
751.963	-4.93
752.189	-5.87
752.415	-6.41
752.641	-6.92
752.867	-7.67
753.094	-8.83
753.32	-10.16
753.546	-11.37
753.772	-8.91
753.998	-10.19
754.224	-11.2
754.45	-11.82
754.676	-12.36
754.902	-12.3
755.128	-11.32
755.354	-12.12
755.579	-12.6
755.805	-11.27
756.031	-12
756.257	-12
756.483	-11.95
756.709	-13.46
756.934	-12.75
757.16	-14.18
757.386	-13.48
757.612	-14.98
757.837	-16.51
758.063	-15.66
758.289	-13.05
758.514	-14.94
758.74	-17.16
758.965	-18.47
759.191	-17.48
759.416	-16.12
759.642	-12.85
759.868	-13.45
760.093	-12.58
760.318	-14.44
760.544	-13.65
760.769	-15.35
760.995	-16.16
761.22	-15.69
761.445	-13.82
761.671	-13.34
761.896	-11.65
762.121	-12.57
762.347	-13.01
762.572	-14.36
762.797	-14.41
763.022	-13.64
763.248	-10.95
763.473	-10.29
763.698	-10.51
763.923	-10.76
764.148	-11.79
764.373	-11.54
764.598	-9.79
764.823	-8.33
765.048	-9.83
765.273	-12.42
765.498	-11.9
765.723	-11.5
765.948	-10.52
766.173	-12.19
766.398	-11.62
766.623	-14.65
766.848	-14.22
767.073	-15.74
767.298	-13.99
767.522	-13.97
767.747	-13.32
767.972	-13.82
768.197	-13.45
768.421	-16.06
768.646	-17.77
768.871	-20.1
769.095	-19.32
769.32	-17.39
769.545	-17.65
769.769	-16.2
769.994	-15.67
770.218	-16.39
770.443	-15.66
770.667	-14.93
770.892	-15.41
771.116	-16.02
771.341	-15.25
771.565	-15.69
771.79	-15.08
772.014	-15.5
772.238	-16.72
772.463	-14.62
772.687	-14.44
772.911	-14.85
773.136	-15.14
773.36	-14.45
773.584	-13.93
773.808	-15.39
774.033	-15.14
774.257	-17.06
774.481	-18.2
774.705	-19.46
774.929	-17.85
775.153	-18.43
775.377	-16.38
775.602	-15.28
775.826	-13.07
776.05	-12.33
776.274	-14.01
776.498	-14.36
776.722	-14.65
776.945	-14.19
777.169	-15.8
777.393	-17.34
777.617	-18.08
777.841	-18.2
778.065	-17.6
778.289	-19.18
778.512	-20.43
778.736	-20.23
778.96	-20.83
779.184	-17.8
779.407	-18.47
779.631	-18.19
779.855	-19.23
780.078	-19.05
780.302	-20.48
780.526	-22.64
780.749	-22.51
780.973	-20.25
781.196	-18.84
781.42	-19.57
781.643	-18.68
781.867	-18.44
782.09	-19.5
782.314	-20.12
782.537	-20.93
782.76	-22.81
782.984	-21.67
783.207	-22.1
783.431	-22
783.654	-23.26
783.877	-25.75
784.1	-26.06
784.324	-25.72
784.547	-25.35
784.77	-26.82
784.993	-27.73
785.216	-28.35
785.44	-27.8
785.663	-29.1
785.886	-26.38
786.109	-28.1
786.332	-29.23
786.555	-28.41
786.778	-27.46
787.001	-26.59
787.224	-24.99
787.447	-23.12
787.67	-21.68
787.893	-22
788.116	-22.66
788.339	-21.91
788.561	-22.8
788.784	-25.87
789.007	-26.32
789.23	-27.66
789.453	-27.16
789.675	-28.33
789.898	-29.71
790.121	-30.08
790.344	-30.28
790.566	-29.29
790.789	-27.45
791.012	-26.98
791.234	-25
791.457	-23.41
791.679	-22.41
791.902	-21.11
792.124	-20.09
792.347	-20.78
792.569	-21.18
792.792	-23.35
793.014	-19.99
793.237	-19.88
793.459	-20.18
793.681	-20.41
793.904	-20.69
794.126	-22.6
794.348	-22.69
794.571	-21.88
794.793	-22.8
795.015	-20.75
795.237	-21.63
795.46	-20.17
795.682	-17.73
795.904	-16.17
796.126	-17
796.348	-17.5
796.57	-14.34
796.792	-14.12
797.014	-11.87
797.237	-9.62
797.459	-8.42
797.681	-7.81
797.903	-9.91
798.124	-10.35
798.346	-1.06
798.568	0.83
798.79	3.96
799.012	4.55
799.234	5.98
799.456	8.77
799.678	10.58
799.899	7.9
800.121	7.11
800.343	7.13
800.565	8
800.786	8.61
801.008	10.37
801.23	10.41
801.451	10.08
801.673	8.02
801.895	6.36
802.116	7.67
802.338	7.24
802.559	5.29
802.781	3.24
803.002	6.01
803.224	6.45
803.445	4.72
803.667	6.06
803.888	3.55
804.109	1.76
804.331	1.82
804.552	1.91
804.773	4.21
804.995	2.23
805.216	-8.09
805.437	-11.32
805.658	-13.43
805.88	-14.19
806.101	-13.81
806.322	-15.54
806.543	-16.26
806.764	-18.37
806.985	-15.78
807.207	-15.22
807.428	-14.81
807.649	-17.47
807.87	-19.83
808.091	-20.92
808.312	-20.04
808.533	-14.57
808.754	-11.7
808.975	-13.58
809.195	-11.74
809.416	-10.31
809.637	-10.19
809.858	-12.49
810.079	-12.96
810.3	-12.12
810.52	-13.1
810.741	-14.42
810.962	-15.11
811.183	-16.96
811.403	-16.57
811.624	-17.21
811.845	-15.74
812.065	-15.36
812.286	-13.11
812.506	-14.22
812.727	-14.73
812.948	-14.96
813.168	-14.24
813.389	-14.85
813.609	-13.75
813.83	-15.58
814.05	-16.29
814.27	-16.08
814.491	-13.32
814.711	-13.12
814.931	-14.11
815.152	-14.96
815.372	-17.13
815.592	-19.29
815.813	-19.38
816.033	-20.08
816.253	-19.98
816.473	-19.88
816.694	-19.14
816.914	-19.02
817.134	-18.62
817.354	-20.09
817.574	-18.03
817.794	-17.23
818.014	-17.9
818.234	-19.9
818.454	-21.53
818.674	-22.4
818.894	-23.91
819.114	-21.79
819.334	-21.16
819.554	-20.77
819.774	-18.64
819.994	-20.42
820.214	-20.61
820.433	-19.84
820.653	-20.13
820.873	-19.76
821.093	-19.38
821.312	-21.31
821.532	-18.68
821.752	-16.69
821.972	-17.03
822.191	-16.36
822.411	-17
822.63	-15.31
822.85	-15.2
823.07	-16.69
823.289	-15.82
823.509	-15.91
823.728	-13.94
823.948	-15.89
824.167	-15.43
824.387	-16.19
824.606	-14.68
824.825	-15.62
825.045	-15.05
825.264	-14.34
825.483	-13.05
825.703	-11.39
825.922	-13.29
826.141	-13.97
826.361	-13.64
826.58	-17.69
826.799	-17.37
827.018	-15.42
827.237	-15.7
827.456	-13.73
827.676	-12.99
827.895	-13.1
828.114	-11.19
828.333	-12.35
828.552	-11.21
828.771	-11.07
828.99	-13.01
829.209	-12.84
829.428	-11.21
829.647	-12.34
829.866	-11.26
830.084	-11.43
830.303	-12.16
830.522	-13.32
830.741	-13.13
830.96	-13.61
831.179	-13.32
831.397	-16.44
831.616	-17.17
831.835	-17.89
832.053	-16.56
832.272	-16.08
832.491	-15.17
832.709	-17.15
832.928	-17.18
833.147	-17.42
833.365	-16.26
833.584	-13.64
833.802	-12.62
834.021	-12.1
834.239	-12.53
834.458	-13.34
834.676	-16.56
834.894	-18.43
835.113	-19.57
835.331	-21.63
835.55	-21.03
835.768	-21.13
835.986	-20.5
836.204	-21.83
836.423	-21.05
836.641	-21.83
836.859	-22.77
837.077	-21.71
837.296	-21.25
837.514	-21.09
837.732	-21.47
837.95	-22.37
838.168	-19.72
838.386	-19.54
838.604	-16.31
838.822	-15.78
839.04	-16.88
839.258	-15.99
839.476	-13.51
839.694	-12.93
839.912	-13.18
840.13	-12.06
840.348	-10.81
840.566	-15.11
840.783	-14.89
841.001	-16.78
841.219	-16.55
841.437	-14.07
841.655	-13.32
841.872	-13.55
842.09	-14.16
842.308	-13.7
842.525	-13.29
842.743	-12.75
842.961	-13.99
843.178	-15.4
843.396	-11.71
843.613	-11
843.831	-11.17
844.048	-11.26
844.266	-11.35
844.483	-11.35
844.701	-12.06
844.918	-11.97
845.136	-11.14
845.353	-12.95
845.57	-13.46
845.788	-12.39
846.005	-15.65
846.222	-16.95
846.439	-15.41
846.657	-15.44
846.874	-15.45
847.091	-17.06
847.308	-14.04
847.526	-14.13
847.743	-14.28
847.96	-16.11
848.177	-15.95
848.394	-15.58
848.611	-15.48
848.828	-14.77
849.045	-15.76
849.262	-15.48
849.479	-15.46
849.696	-15.92
849.913	-16.25
850.13	-20.53
850.347	-18.78
850.564	-17.9
850.78	-19.71
850.997	-21.77
851.214	-21.85
851.431	-20.14
851.647	-22.65
851.864	-22.31
852.081	-22.2
852.298	-24.22
852.514	-25.27
852.731	-23.32
852.948	-22.05
853.164	-21.3
853.381	-20.97
853.597	-22.99
853.814	-25.93
854.03	-29.78
854.247	-28.95
854.463	-28.76
854.68	-28.85
854.896	-28.42
855.113	-28.2
855.329	-27.4
855.545	-25.35
855.762	-25.95
855.978	-27.98
856.194	-29.87
856.411	-26.63
856.627	-26.01
856.843	-25.77
857.059	-24.04
857.275	-25.25
857.492	-23.32
857.708	-18.98
857.924	-17.55
858.14	-15.85
858.356	-15.4
858.572	-15.24
858.788	-14.89
859.004	-13.63
859.22	-14.3
859.436	-15.16
859.652	-16.87
859.868	-19.06
860.084	-19.07
860.3	-16.64
860.516	-16.01
860.731	-15.03
860.947	-16.78
861.163	-14.82
861.379	-14.23
861.595	-14.44
861.81	-14.9
862.026	-14.56
862.242	-16.03
862.457	-16.71
862.673	-14.9
862.889	-13.89
863.104	-16.14
863.32	-16.02
863.535	-13.77
863.751	-16.81
863.966	-15.6
864.182	-15.18
864.397	-17.54
864.613	-18.5
864.828	-20.36
865.044	-18.83
865.259	-17.15
865.474	-16.91
865.69	-15.63
865.905	-15.78
866.12	-16.44
866.336	-17
866.551	-16.21
866.766	-16.12
866.981	-18.9
867.196	-18.76
867.412	-17.08
867.627	-16.82
867.842	-17.9
868.057	-17.09
868.272	-17.93
868.487	-18.75
868.702	-20.31
868.917	-19.29
869.132	-17.76
869.347	-17.42
869.562	-18.83
869.777	-18.64
869.992	-18.61
870.207	-20.33
870.422	-21
870.636	-21.24
870.851	-22.6
871.066	-22.53
871.281	-22.63
871.495	-22.6
871.71	-21.36
871.925	-23.97
872.14	-25.67
872.354	-27.36
872.569	-26.16
872.783	-25.31
872.998	-24.21
873.213	-24.7
873.427	-22.81
873.642	-20.54
873.856	-20.38
874.071	-21.24
874.285	-20.92
874.5	-21.27
874.714	-22.12
874.928	-20.49
875.143	-20.09
875.357	-19.66
875.571	-21.89
875.786	-22.19
876	-21.28
876.214	-19.91
876.429	-21.78
876.643	-20.42
876.857	-19.67
877.071	-18.62
877.285	-20.08
877.499	-21.95
877.714	-20.66
877.928	-18.97
878.142	-19.99
878.356	-22.17
878.57	-20.68
878.784	-20.01
878.998	-20.69
879.212	-19.99
879.426	-21.79
879.639	-19.84
879.853	-21.13
880.067	-22.19
880.281	-23.31
880.495	-21.42
880.709	-19.04
880.922	-19.61
881.136	-19.19
881.35	-18.26
881.564	-20.1
881.777	-21.82
881.991	-22.11
882.205	-18.77
882.418	-18.83
882.632	-20.59
882.845	-20.65
883.059	-19.16
883.273	-19.81
883.486	-19.73
883.7	-18.54
883.913	-18.66
884.126	-17.16
884.34	-20.67
884.553	-23.02
884.767	-19.56
884.98	-19.41
885.193	-21.21
885.407	-21.4
885.62	-18.97
885.833	-19.4
886.046	-16.98
886.26	-18.78
886.473	-18.79
886.686	-19.78
886.899	-18.96
887.112	-20.42
887.326	-22.92
887.539	-22.36
887.752	-21.7
887.965	-22.62
888.178	-22.8
888.391	-20.83
888.604	-20.3
888.817	-22.55
889.03	-21.27
889.243	-21.34
889.455	-23.69
889.668	-22.8
889.881	-20.82
890.094	-20.85
890.307	-22.07
890.52	-21.34
890.732	-21.24
890.945	-19.79
891.158	-18.01
891.37	-20.96
891.583	-20.52
891.796	-18.37
892.008	-18.78
892.221	-20.79
892.434	-23.72
892.646	-24.88
892.859	-26.21
893.071	-25.51
893.284	-24.36
893.496	-25.05
893.709	-24.9
893.921	-24.05
894.133	-24.02
894.346	-24.47
894.558	-24.66
894.771	-24.34
894.983	-22.83
895.195	-22.06
895.407	-21.11
895.62	-24.05
895.832	-23.65
896.044	-21.79
896.256	-23.48
896.468	-26.13
896.681	-25.87
896.893	-25.55
897.105	-24.92
897.317	-25.38
897.529	-24
897.741	-24.8
897.953	-22.51
898.165	-23.38
898.377	-25.05
898.589	-24.7
898.801	-24.06
899.013	-21.74
899.224	-20.21
899.436	-18.42
899.648	-17.48
899.86	-19.64
900.072	-16.73
900.283	-16.4
900.495	-15.66
900.707	-15.97
900.919	-18.47
901.13	-18.58
901.342	-20.08
901.554	-22
901.765	-22.21
901.977	-23.83
902.188	-23.7
902.4	-25.29
902.611	-24.92
902.823	-26.18
903.034	-28.49
903.246	-29.27
903.457	-28.67
903.669	-30.05
903.88	-30.33
904.091	-30.15
904.303	-30.31
904.514	-32.49
904.725	-30.67
904.936	-29.2
905.148	-28.74
905.359	-27.19
905.57	-27.41
905.781	-29.23
905.992	-28.52
906.204	-29.19
906.415	-27.98
906.626	-30.49
906.837	-28.69
907.048	-28.47
907.259	-27.55
907.47	-28.39
907.681	-28.97
907.892	-26.45
908.103	-27.38
908.314	-29.89
908.525	-28.4
908.735	-27.66
908.946	-27.41
909.157	-29.77
909.368	-27.7
909.579	-25.43
909.789	-26.54
910	-28.31
910.211	-26.79
910.421	-26.45
910.632	-26.16
910.843	-27.59
911.053	-24.99
911.264	-24.57
911.475	-24.84
911.685	-24.92
911.896	-24.05
912.106	-23.43
912.317	-24.15
912.527	-24.29
912.737	-24.29
912.948	-23.29
913.158	-23.71
913.369	-26.46
913.579	-25.22
913.789	-25.42
914	-21.67
914.21	-20.56
914.42	-19.79
914.63	-19.98
914.841	-19.28
915.051	-18.94
915.261	-19.19
915.471	-16.53
915.681	-17.03
915.891	-15.93
916.101	-16.12
916.311	-15.54
916.521	-14.75
916.731	-13.9
916.941	-11.54
917.151	-13.04
917.361	-10.34
917.571	-13.3
917.781	-14.74
917.991	-17.83
918.201	-17.24
918.411	-20.33
918.621	-22.29
918.83	-22.22
919.04	-22.56
919.25	-20.44
919.46	-19.88
919.669	-20.74
919.879	-20.73
920.089	-21.24
920.298	-21.82
920.508	-21.9
920.717	-20.88
920.927	-23.48
921.136	-22.29
921.346	-21.95
921.555	-24.62
921.765	-24.31
921.974	-26.19
922.184	-25
922.393	-26.04
922.603	-26.9
922.812	-25.55
923.021	-26.43
923.23	-27.99
923.44	-31
923.649	-31.49
923.858	-32.07
924.067	-31.8
924.277	-32.05
924.486	-29.09
924.695	-29.75
924.904	-29.26
925.113	-27.45
925.322	-24.97
925.531	-24.01
925.74	-26.16
925.949	-26.72
926.158	-25.29
926.367	-23.75
926.576	-23.84
926.785	-24.78
926.994	-27.48
927.203	-27.19
927.412	-26.61
927.621	-26.79
927.83	-24.64
928.038	-23.53
928.247	-22.84
928.456	-22.93
928.665	-23.61
928.873	-22.06
929.082	-20.7
929.291	-21.85
929.499	-19.99
929.708	-19.97
929.916	-18
930.125	-18.33
930.333	-19.44
930.542	-16.69
930.75	-15.8
930.959	-15.44
931.167	-16.62
931.376	-16.42
931.584	-14.93
931.793	-15.57
932.001	-17.99
932.209	-19.36
932.418	-21.78
932.626	-23.28
932.834	-26.55
933.042	-29.72
933.251	-30.51
933.459	-29.43
933.667	-29.63
933.875	-30.25
934.083	-29.47
934.291	-30.06
934.499	-28.99
934.707	-30.99
934.915	-31.28
935.123	-28.13
935.331	-29.97
935.539	-32.1
935.747	-31.32
935.955	-31.54
936.163	-31.51
936.371	-32.71
936.579	-30.24
936.787	-29.4
936.995	-31.46
937.202	-32.43
937.41	-33.49
937.618	-34.21
937.826	-34.56
938.033	-37.77
938.241	-38.42
938.449	-35.51
938.656	-33.9
938.864	-34.76
939.071	-33.96
939.279	-31.2
939.486	-28.87
939.694	-27.92
939.901	-27.79
940.109	-28.92
940.316	-27.51
940.524	-28.48
940.731	-28.89
940.939	-29.04
941.146	-27.66
941.353	-28.78
941.561	-30.07
941.768	-29.25
941.975	-27.37
942.182	-27.75
942.39	-27.91
942.597	-25.68
942.804	-25.46
943.011	-26.86
943.218	-27.22
943.425	-27.94
943.632	-27.23
943.839	-26.97
944.046	-26.5
944.253	-25.68
944.46	-25.07
944.667	-23.01
944.874	-25.12
945.081	-23.95
945.288	-20.68
945.495	-18.79
945.702	-18.17
945.909	-18.94
946.115	-18.52
946.322	-18.87
946.529	-18.16
946.736	-18.61
946.942	-16.88
947.149	-16.98
947.356	-17.5
947.562	-18.9
947.769	-17.63
947.976	-18.24
948.182	-17.71
948.389	-18.37
948.595	-18.87
948.802	-19.52
949.008	-21.16
949.215	-20.82
949.421	-20.82
949.628	-21.14
949.834	-20.43
950.04	-21.28
950.247	-19.83
950.453	-18.6
950.659	-20.86
950.865	-20.34
951.072	-23.38
951.278	-21.13
951.484	-21.72
951.69	-24.26
951.896	-26.09
952.103	-27.73
952.309	-26.24
952.515	-26.03
952.721	-25.73
952.927	-25.3
953.133	-26.9
953.339	-28.87
953.545	-29.03
953.751	-27.42
953.957	-24.79
954.163	-26.15
954.369	-26
954.574	-27.53
954.78	-27.56
954.986	-25.86
955.192	-23.68
955.398	-24.29
955.603	-25.17
955.809	-24.14
956.015	-23.8
956.22	-22.5
956.426	-21.13
956.632	-21.96
956.837	-21.14
957.043	-19.38
957.248	-18.32
957.454	-19.58
957.66	-21.51
957.865	-21.86
958.07	-20.43
958.276	-20.32
958.481	-19.81
958.687	-20.53
958.892	-19.26
959.097	-19.16
959.303	-20.62
959.508	-19.93
959.713	-19.03
959.919	-19.63
960.124	-21.96
960.329	-21.96
960.534	-18.59
960.739	-18.12
960.945	-16.43
961.15	-17.32
961.355	-19.19
961.56	-22.41
961.765	-24.48
961.97	-24.37
962.175	-24.03
962.38	-27.32
962.585	-26.33
962.79	-27.93
962.995	-28.59
963.2	-30.08
963.404	-30.28
963.609	-32.44
963.814	-31.11
964.019	-32.74
964.224	-34.55
964.428	-34.64
964.633	-34.02
964.838	-32.93
965.042	-33.74
965.247	-35.58
965.452	-35.6
965.656	-34.08
965.861	-32.22
966.066	-33.39
966.27	-31.19
966.475	-28.37
966.679	-30.97
966.884	-31.17
967.088	-31.69
967.292	-33.12
967.497	-30.91
967.701	-30.61
967.906	-29.95
968.11	-26.43
968.314	-22.8
968.518	-23.51
968.723	-20.01
968.927	-21.7
969.131	-20.35
969.335	-18
969.539	-17.04
969.744	-15.2
969.948	-13.6
970.152	-12.06
970.356	-10.44
970.56	-10.2
970.764	-9.31
970.968	-8.03
971.172	-8.57
971.376	-9.25
971.58	-8.47
971.784	-8.08
971.988	-8.43
972.192	-7.07
972.395	-6.63
972.599	-7.96
972.803	-9.24
973.007	-7.97
973.21	-9.6
973.414	-9.79
973.618	-9.42
973.822	-10.68
974.025	-10.88
974.229	-10.42
974.432	-13
974.636	-16
974.84	-14.92
975.043	-14.39
975.247	-14.42
975.45	-15.17
975.654	-15.07
975.857	-14.94
976.06	-15.71
976.264	-17.22
976.467	-16.66
976.671	-16.34
976.874	-14.03
977.077	-16.14
977.28	-17.11
977.484	-19.31
977.687	-18.41
977.89	-17.65
978.093	-17.26
978.297	-16.69
978.5	-20.13
978.703	-18.58
978.906	-18.72
979.109	-18.12
979.312	-16.56
979.515	-16.17
979.718	-16.39
979.921	-16.11
980.124	-16.9
980.327	-16.97
980.53	-16.77
980.733	-15.02
980.936	-13.08
981.138	-15.22
981.341	-15.54
981.544	-14.73
981.747	-15.5
981.949	-17.57
982.152	-17.65
982.355	-18.76
982.558	-15.99
982.76	-18.44
982.963	-19.47
983.165	-20.52
983.368	-18.55
983.571	-19.15
983.773	-14.91
983.976	-15.2
984.178	-14.97
984.381	-15.34
984.583	-17.75
984.785	-15.89
984.988	-15.73
985.19	-14.41
985.392	-16
985.595	-18.41
985.797	-17.9
985.999	-15.43
986.202	-14.72
986.404	-14.65
986.606	-11.52
986.808	-11.77
987.01	-10.86
987.212	-11.27
987.415	-10.26
987.617	-9.83
987.819	-10.93
988.021	-9.66
988.223	-10.41
988.425	-10.59
988.627	-11.02
988.829	-14.96
989.031	-14.04
989.232	-14.64
989.434	-13.48
989.636	-14.6
989.838	-14.79
990.04	-15.35
990.242	-15.41
990.443	-17.38
990.645	-15.59
990.847	-13.47
991.048	-14.1
991.25	-14.4
991.452	-14.97
991.653	-15.18
991.855	-15.67
992.057	-16.71
992.258	-17.83
992.46	-17.75
992.661	-16.55
992.863	-18.62
993.064	-18.19
993.265	-18.64
993.467	-20.26
993.668	-19.96
993.87	-20.3
994.071	-20.07
994.272	-20.53
994.473	-19.79
994.675	-19.99
994.876	-19.47
995.077	-17.39
995.278	-16.19
995.48	-15.57
995.681	-17.8
995.882	-16.7
996.083	-16.25
996.284	-19.64
996.485	-20.48
996.686	-19.35
996.887	-21.95
997.088	-23.89
997.289	-24.89
997.49	-25.9
997.691	-26.49
997.892	-26.17
998.092	-22.65
998.293	-22.36
998.494	-22.21
998.695	-22.73
998.896	-21.53
999.096	-21.57
999.297	-22.31
999.498	-24.12
999.698	-26.34
999.899	-27.84
1000.1	-29.35
1000.3	-29.47
1000.501	-30.18
1000.701	-29.34
1000.902	-29.39
1001.102	-27.88
1001.303	-27.85
1001.503	-29.66
1001.704	-28.53
1001.904	-28.14
1002.105	-29.49
1002.305	-29.81
1002.505	-29.68
1002.706	-28.88
1002.906	-30.39
1003.106	-29.79
1003.306	-28.41
1003.507	-27.22
1003.707	-27.12
1003.907	-25.33
1004.107	-25.56
1004.307	-27.05
1004.507	-26.04
1004.707	-27.59
1004.907	-29.99
1005.107	-30.47
1005.308	-29.63
1005.507	-29.85
1005.707	-27.84
1005.907	-26.63
1006.107	-24.8
1006.307	-23.16
1006.507	-23.29
1006.707	-22.48
1006.907	-22.36
1007.106	-23.65
1007.306	-24.09
1007.506	-23.12
1007.706	-22.65
1007.905	-23.87
1008.105	-23.51
1008.305	-22.45
1008.504	-20.49
1008.704	-16.36
1008.903	-16.57
1009.103	-14.28
1009.303	-14.64
1009.502	-15.4
1009.702	-15.7
1009.901	-16.03
1010.1	-18.28
1010.3	-15.96
1010.499	-17.6
1010.699	-18.17
1010.898	-18.34
1011.097	-16.6
1011.296	-16.69
1011.496	-17.39
1011.695	-18.37
1011.894	-19.59
1012.093	-16.95
1012.293	-17.93
1012.492	-18.69
1012.691	-18.73
1012.89	-19.09
1013.089	-21.54
1013.288	-19.47
1013.487	-19.49
1013.686	-21
1013.885	-22.31
1014.084	-22.88
1014.283	-22.5
1014.482	-22.73
1014.681	-24.13
1014.88	-26.69
1015.078	-25.75
1015.277	-28.69
1015.476	-29.97
1015.675	-28.59
1015.873	-28.78
1016.072	-30.15
1016.271	-27.98
1016.47	-30.11
1016.668	-28.27
1016.867	-28.47
1017.065	-29.17
1017.264	-29.05
1017.463	-29.82
1017.661	-29.86
1017.86	-28.83
1018.058	-28.44
1018.256	-30.2
1018.455	-30.49
1018.653	-28.61
1018.852	-28.32
1019.05	-29.47
1019.248	-28.99
1019.447	-31.08
1019.645	-31.64
1019.843	-32.47
1020.041	-31.94
1020.24	-31.34
1020.438	-28.85
1020.636	-29.85
1020.834	-31.6
1021.032	-30.16
1021.23	-30.31
1021.428	-29.04
1021.626	-25.67
1021.824	-26
1022.022	-26.82
1022.22	-24.71
1022.418	-24.69
1022.616	-26.38
1022.814	-27.62
1023.012	-27.28
1023.21	-25.39
1023.408	-25.84
1023.606	-26.01
1023.803	-23.06
1024.001	-23.46
1024.199	-24.89
1024.397	-24.12
1024.594	-24.83
1024.792	-27.38
1024.99	-26.62
1025.187	-26.82
1025.385	-24.73
1025.582	-22.55
1025.78	-23.15
1025.977	-21.98
1026.175	-20.47
1026.372	-21.07
1026.57	-23.27
1026.767	-21.22
1026.965	-19.42
1027.162	-20.28
1027.359	-21.24
1027.557	-19.53
1027.754	-22.32
1027.951	-23.42
1028.148	-20.54
1028.346	-21.63
1028.543	-23.75
1028.74	-23.62
1028.937	-24.24
1029.134	-25.34
1029.331	-25.96
1029.528	-26.54
1029.725	-27.63
1029.923	-30.59
1030.12	-27.73
1030.317	-27.55
1030.513	-25.98
1030.71	-23.4
1030.907	-22.67
1031.104	-23.93
1031.301	-24.34
1031.498	-24.21
1031.695	-24.65
1031.892	-23.7
1032.088	-23.83
1032.285	-25.78
1032.482	-25.93
1032.678	-27.59
1032.875	-28.3
1033.072	-28.56
1033.268	-29.63
1033.465	-29.63
1033.662	-31.92
1033.858	-31.53
1034.055	-31.84
1034.251	-30.51
1034.448	-31.78
1034.644	-31.49
1034.84	-29.01
1035.037	-26.98
1035.233	-26.8
1035.43	-25.08
1035.626	-24.47
1035.822	-23.26
1036.019	-23.74
1036.215	-26.99
1036.411	-26.88
1036.607	-29.03
1036.803	-31.55
1037	-31.37
1037.196	-32.49
1037.392	-31.75
1037.588	-33.85
1037.784	-34.21
1037.98	-35.92
1038.176	-36.14
1038.372	-37.01
1038.568	-34.94
1038.764	-33.71
1038.96	-31.6
1039.156	-33.18
1039.352	-32.54
1039.547	-30.48
1039.743	-29.09
1039.939	-26.56
1040.135	-27.39
1040.331	-29.86
1040.526	-27.93
1040.722	-29.8
1040.918	-30.16
1041.113	-32.75
1041.309	-33.55
1041.505	-36.27
1041.7	-36.49
1041.896	-35.9
1042.091	-35.4
1042.287	-33.82
1042.482	-33.25
1042.678	-33.49
1042.873	-32.84
1043.069	-33.2
1043.264	-32.02
1043.459	-31.41
1043.655	-30.37
1043.85	-30.35
1044.045	-28.62
1044.24	-27.88
1044.436	-24.53
1044.631	-26.01
1044.826	-26.52
1045.021	-31.1
1045.216	-29.47
