Data from FLMT021711__2__17-05-29-762.txt Node

Date: Tue Nov 05 17:05:29 CET 2024
User: Etudiants TP
Spectrometer: FLMT02171
Trigger mode: 0
Integration Time (sec): 1.000000E-1
Scans to average: 5
Electric dark correction enabled: true
Nonlinearity correction enabled: false
Boxcar width: 15
XAxis mode: Wavelengths
Number of Pixels in Spectrum: 3648
>>>>>Begin Spectral Data<<<<<
194.658	-55.29
194.923	-53.3
195.188	-48.24
195.453	-46.29
195.717	-40.68
195.982	-40.85
196.247	-39.47
196.512	-42.01
196.777	-40.98
197.042	-37.84
197.307	-37.44
197.572	-33.95
197.837	-33.53
198.101	-31.48
198.366	-29.59
198.631	-28.26
198.896	-21.68
199.161	-15.33
199.425	-9.75
199.69	-0.41
199.955	-1.69
200.22	-4.05
200.484	-4.44
200.749	-4.13
201.014	-1.41
201.278	-1.02
201.543	0.05
201.807	0.92
202.072	1.69
202.337	1.65
202.601	1.7
202.866	-0.66
203.13	0.56
203.395	-1.4
203.659	-1.78
203.924	-3.41
204.189	-2.1
204.453	-1.26
204.717	1.18
204.982	2.03
205.246	1.95
205.511	3.05
205.775	1.95
206.04	6.65
206.304	7.44
206.568	9.17
206.833	10.69
207.097	10.4
207.361	12.04
207.626	15.58
207.89	15.31
208.154	17.04
208.419	19.19
208.683	19.07
208.947	21.38
209.211	20.83
209.476	19.17
209.74	18.92
210.004	18.75
210.268	19.48
210.532	20.7
210.796	21.77
211.061	21.54
211.325	21.37
211.589	20.78
211.853	22
212.117	22.15
212.381	22.51
212.645	22.84
212.909	23.98
213.173	22.76
213.437	22.45
213.701	23.03
213.965	23.64
214.229	19.28
214.493	18.01
214.757	16.61
215.021	14.89
215.285	17.99
215.549	19.28
215.813	17.06
216.077	16.37
216.34	17.66
216.604	16.84
216.868	17.35
217.132	17.07
217.396	16.11
217.659	17.11
217.923	15.6
218.187	15.62
218.451	14.2
218.714	12.1
218.978	12.26
219.242	15.65
219.505	15.52
219.769	17.87
220.033	17.17
220.296	18.55
220.56	20.23
220.824	18.48
221.087	17.41
221.351	16.47
221.614	16.03
221.878	17.35
222.142	17.44
222.405	16.98
222.669	19.56
222.932	15.9
223.196	16.18
223.459	12.86
223.722	13.48
223.986	11.25
224.249	11.12
224.513	10.73
224.776	10.17
225.04	10.04
225.303	10.11
225.566	10.13
225.83	11.22
226.093	12.37
226.356	11.12
226.62	10.92
226.883	12.43
227.146	12.02
227.409	11.05
227.673	10.91
227.936	8.37
228.199	8.41
228.462	6.43
228.725	3.48
228.989	2.46
229.252	4.34
229.515	10
229.778	8.93
230.041	7.87
230.304	4.62
230.567	6.33
230.83	3.63
231.093	6.84
231.356	4.62
231.619	10.74
231.882	8.86
232.145	12.27
232.408	11.42
232.671	11.64
232.934	12.39
233.197	10.39
233.46	8.66
233.723	10.17
233.986	9.62
234.249	9.02
234.512	10.43
234.775	13.16
235.037	12.61
235.3	13.46
235.563	12.39
235.826	12.94
236.089	16.09
236.351	15.47
236.614	17.52
236.877	19.11
237.14	22.48
237.402	21.3
237.665	15.26
237.928	15.72
238.19	13.75
238.453	17.41
238.716	15.3
238.978	15.69
239.241	13.11
239.503	16
239.766	10.38
240.029	8.75
240.291	11.3
240.554	11.86
240.816	11.79
241.079	11.29
241.341	11.92
241.604	12.11
241.866	9.53
242.129	9.95
242.391	10.89
242.653	10.01
242.916	9.35
243.178	8.66
243.441	10.21
243.703	9.46
243.965	7.72
244.228	7.76
244.49	8.11
244.752	8.67
245.015	9.25
245.277	10.58
245.539	9.17
245.801	11.07
246.064	10.9
246.326	9.67
246.588	9.64
246.85	13.27
247.112	14.4
247.374	17.06
247.637	18.74
247.899	19.52
248.161	20.88
248.423	16.56
248.685	16.66
248.947	15.19
249.209	14
249.471	14.95
249.733	15.37
249.995	14.06
250.257	13.96
250.519	11.81
250.781	13.07
251.043	11.02
251.305	12.53
251.567	13.2
251.829	14.63
252.091	14.02
252.353	9.75
252.615	9.87
252.876	7.71
253.138	5.82
253.4	1.6
253.662	2.58
253.924	4.25
254.185	4.03
254.447	5.32
254.709	4.06
254.971	4.36
255.232	5.21
255.494	4.52
255.756	1.82
256.017	2.37
256.279	2.61
256.541	3.22
256.802	2.29
257.064	3.39
257.326	4.64
257.587	4.92
257.849	5.4
258.11	7.81
258.372	7.9
258.633	9.5
258.895	8.65
259.156	7.9
259.418	6.93
259.679	3.76
259.941	1.77
260.202	3.77
260.464	6.09
260.725	6.3
260.987	6.13
261.248	5.53
261.509	7.83
261.771	8.58
262.032	10.46
262.293	10.47
262.555	9.62
262.816	8.78
263.077	6.51
263.338	4.13
263.6	4.04
263.861	4.41
264.122	2.94
264.383	5.31
264.645	4.99
264.906	5.24
265.167	5.89
265.428	4
265.689	5.31
265.95	3.58
266.211	5.7
266.473	5.2
266.734	3.32
266.995	1.26
267.256	0.42
267.517	1.88
267.778	3.89
268.039	4.89
268.3	5.36
268.561	4.2
268.822	5.67
269.083	3.53
269.344	3.4
269.604	2.28
269.865	2.35
270.126	-2.11
270.387	-1.45
270.648	0.42
270.909	1.02
271.17	-0.26
271.43	-2.81
271.691	-5.01
271.952	-5.75
272.213	-2.7
272.473	-6.04
272.734	-3.36
272.995	-2.45
273.256	-1.99
273.516	0.51
273.777	-1.56
274.038	0.53
274.298	-3.08
274.559	-2.94
274.82	2.22
275.08	4.19
275.341	7.46
275.601	7.99
275.862	6.45
276.122	7.98
276.383	7.19
276.643	8.69
276.904	7.91
277.164	10.86
277.425	10.64
277.685	14.02
277.946	13.41
278.206	15.89
278.467	17.49
278.727	16.94
278.987	15.72
279.248	16.47
279.508	18.4
279.768	20.92
280.029	21.72
280.289	18.48
280.549	18.12
280.81	17.59
281.07	16.23
281.33	16.33
281.59	14.75
281.851	15.79
282.111	15.87
282.371	16.26
282.631	17.1
282.891	13.46
283.151	12.39
283.412	9.88
283.672	8.84
283.932	8.61
284.192	8.52
284.452	6.62
284.712	4.98
284.972	4.43
285.232	2.74
285.492	4.56
285.752	2.12
286.012	8.04
286.272	9
286.532	7.68
286.792	8.6
287.052	9.7
287.312	8.65
287.571	7.38
287.831	7.56
288.091	6.19
288.351	6.56
288.611	9.55
288.871	8.37
289.13	8.89
289.39	6.44
289.65	7.53
289.91	5.63
290.17	6.31
290.429	7.97
290.689	5.85
290.949	3.65
291.208	4.39
291.468	7.01
291.728	7.62
291.987	9.16
292.247	8.92
292.506	12.53
292.766	14.27
293.026	12.64
293.285	12.48
293.545	15.03
293.804	15.48
294.064	10.87
294.323	8.28
294.583	9.11
294.842	9.32
295.102	9.64
295.361	10.9
295.621	12.3
295.88	12.57
296.139	12.74
296.399	13.37
296.658	9.76
296.917	10.33
297.177	7.76
297.436	9.15
297.695	7.77
297.955	9.01
298.214	7.1
298.473	8.55
298.732	10.96
298.992	13.96
299.251	14.06
299.51	10.37
299.769	10.53
300.028	9.89
300.287	9.53
300.547	8.88
300.806	6.97
301.065	9.5
301.324	11.29
301.583	7.43
301.842	4.28
302.101	4.13
302.36	3.35
302.619	2.74
302.878	2.44
303.137	1.28
303.396	2.27
303.655	4.21
303.914	1.41
304.173	1.57
304.432	0.76
304.691	3.37
304.95	1.14
305.208	5.63
305.467	6.36
305.726	5.45
305.985	6.53
306.244	8.05
306.503	7.23
306.761	4.71
307.02	2.7
307.279	2.69
307.537	4.35
307.796	2.41
308.055	1.67
308.314	1.92
308.572	-0.3
308.831	1.16
309.09	0.74
309.348	1.48
309.607	0.64
309.865	3.14
310.124	2.13
310.382	5.1
310.641	5.7
310.9	4.18
311.158	5.01
311.417	4.42
311.675	3.64
311.933	4.55
312.192	4.88
312.45	5.8
312.709	4.39
312.967	4.81
313.226	3.86
313.484	2.79
313.742	3.03
314.001	1.72
314.259	1.69
314.517	2.43
314.776	5.11
315.034	7.59
315.292	5.65
315.55	3.7
315.809	3.23
316.067	2.75
316.325	1.42
316.583	2.86
316.841	1.37
317.1	0
317.358	-2
317.616	-1.27
317.874	-2.39
318.132	-3.93
318.39	-5.62
318.648	-6.86
318.906	-5.27
319.164	-5.84
319.422	-6.77
319.68	-8.23
319.938	-7.76
320.196	-6.2
320.454	-4.93
320.712	-4.43
320.97	-4.39
321.228	-6.12
321.486	-5.18
321.744	-3.99
322.002	-3.04
322.26	-4.7
322.517	-5.1
322.775	-6.85
323.033	-8.78
323.291	-5.73
323.549	-3.7
323.806	-2.05
324.064	-1.21
324.322	0.46
324.58	-0.46
324.837	0.72
325.095	-0.05
325.353	1.03
325.61	3.69
325.868	4.1
326.126	7.51
326.383	6.35
326.641	5.74
326.898	6.02
327.156	5.81
327.413	7.27
327.671	8.66
327.928	10.99
328.186	10.38
328.443	8.2
328.701	12.69
328.958	12.82
329.216	12.97
329.473	11.47
329.731	12.24
329.988	13.2
330.245	15.23
330.503	15.99
330.76	15.64
331.017	17.49
331.275	14.46
331.532	13.9
331.789	12.51
332.047	11.91
332.304	9.53
332.561	10.01
332.818	9.38
333.076	11.36
333.333	11.95
333.59	10.43
333.847	11.77
334.104	10.62
334.361	10.24
334.618	9.18
334.876	7.26
335.133	7.51
335.39	5.22
335.647	4.52
335.904	1.25
336.161	-2.31
336.418	-1.59
336.675	-7.51
336.932	-6.01
337.189	-5.69
337.446	-5.12
337.703	-6.34
337.96	-9.78
338.216	-9.16
338.473	-12.21
338.73	-11.23
338.987	-11.07
339.244	-7.66
339.501	-9.15
339.757	-9.22
340.014	-6.5
340.271	-5.65
340.528	-4.82
340.785	0.13
341.041	0.29
341.298	-2.31
341.555	-2.73
341.811	-3.88
342.068	-5.6
342.325	-4.1
342.581	-0.54
342.838	0.92
343.094	0.89
343.351	0.43
343.608	-0.32
343.864	1.72
344.121	4.85
344.377	4.18
344.634	4.94
344.89	4.24
345.147	3.59
345.403	4.2
345.66	4.65
345.916	5.57
346.172	2.9
346.429	2.75
346.685	1.84
346.942	0.86
347.198	-1.42
347.454	0.2
347.711	-0.48
347.967	-3.73
348.223	-2.48
348.48	-4.31
348.736	-2.64
348.992	-3.72
349.248	-0.8
349.504	-0.01
349.761	-0.12
350.017	-0.93
350.273	-2.04
350.529	-4.06
350.785	-4.62
351.041	-4.52
351.297	-2.12
351.554	-3.12
351.81	-4.39
352.066	-5.26
352.322	-4.85
352.578	-3.2
352.834	-4.45
353.09	-3.5
353.346	-4.82
353.602	-7.07
353.858	-6.99
354.114	-8.09
354.369	-7.81
354.625	-6.49
354.881	-6.82
355.137	-5.31
355.393	-5.66
355.649	-4.17
355.905	-3.81
356.16	-4.58
356.416	-3.22
356.672	-9.25
356.928	-9.11
357.183	-9.57
357.439	-9.85
357.695	-10.97
357.951	-6.47
358.206	-6.9
358.462	-7.15
358.718	-8.12
358.973	-6.94
359.229	-6.87
359.484	-6.14
359.74	-4.05
359.996	-4.69
360.251	-2.61
360.507	-4.6
360.762	-5.61
361.018	-5
361.273	-5.23
361.529	-4.18
361.784	-5.23
362.04	-3.72
362.295	-3.14
362.55	-3.21
362.806	-2.87
363.061	-2.76
363.316	-1.66
363.572	-2.04
363.827	-1.65
364.082	-3.9
364.338	-3.79
364.593	-3.33
364.848	-2.16
365.104	-3.32
365.359	-0.93
365.614	-0.02
365.869	-2.79
366.124	-1.6
366.38	-1.83
366.635	-0.27
366.89	-0.14
367.145	-0.59
367.4	2.36
367.655	1.78
367.91	2.62
368.165	1.2
368.42	-0.13
368.675	1.33
368.93	3.1
369.185	0.48
369.44	1.94
369.695	5.15
369.95	3.95
370.205	3.76
370.46	3.18
370.715	2.72
370.97	3.57
371.225	3.94
371.48	5.16
371.734	6.18
371.989	7.64
372.244	7.18
372.499	7.31
372.754	6.59
373.008	5.11
373.263	1.22
373.518	4
373.773	2.75
374.027	2.18
374.282	4.81
374.537	4.68
374.791	5.47
375.046	4.7
375.301	3.15
375.555	2.47
375.81	4.24
376.064	5.2
376.319	7.38
376.573	7.45
376.828	3.04
377.082	6.69
377.337	5.59
377.591	2.49
377.846	4.38
378.1	6.83
378.355	6.66
378.609	6.59
378.863	2.61
379.118	4.03
379.372	4.27
379.627	2.04
379.881	0.31
380.135	-0.19
380.389	0.05
380.644	0.79
380.898	1.07
381.152	2.04
381.407	0.71
381.661	2
381.915	2.69
382.169	1.6
382.423	1.23
382.677	-1.24
382.932	-0.12
383.186	0.45
383.44	0.65
383.694	1.57
383.948	-1.14
384.202	-2.03
384.456	-0.56
384.71	2.03
384.964	0.93
385.218	1.15
385.472	2.81
385.726	2.73
385.98	1.03
386.234	0.42
386.488	-2.39
386.742	0.04
386.996	-3.23
387.249	-3.2
387.503	-1.01
387.757	0.34
388.011	1.01
388.265	2.49
388.518	3.39
388.772	4.06
389.026	5.41
389.28	2.27
389.533	1.76
389.787	4.06
390.041	2.1
390.295	2.08
390.548	2.26
390.802	4.55
391.055	4.96
391.309	3.85
391.563	1.46
391.816	2.83
392.07	2.49
392.323	3.82
392.577	4.15
392.83	5.78
393.084	10.57
393.337	12.98
393.591	14.2
393.844	14.86
394.098	19.87
394.351	24.17
394.604	25.95
394.858	27.63
395.111	27.86
395.364	25.2
395.618	26.89
395.871	25.61
396.124	25.15
396.378	23.65
396.631	24.49
396.884	21.91
397.137	23.29
397.391	24.34
397.644	21.67
397.897	23.17
398.15	24.7
398.403	27.78
398.657	26.07
398.91	23.86
399.163	23.83
399.416	23.74
399.669	22.95
399.922	23.2
400.175	20.7
400.428	19.14
400.681	18.48
400.934	15.11
401.187	12.67
401.44	11.07
401.693	9.19
401.946	4.77
402.199	1.43
402.452	0.45
402.704	-2.04
402.957	-3.3
403.21	-0.67
403.463	-0.83
403.716	-0.1
403.969	0.15
404.221	0.41
404.474	2.56
404.727	5.96
404.98	8
405.232	8.25
405.485	9.34
405.738	10.07
405.99	9.83
406.243	9.35
406.496	10.63
406.748	10.13
407.001	10.96
407.253	11.57
407.506	12.08
407.759	11.76
408.011	10.21
408.264	11.1
408.516	12.35
408.769	9.35
409.021	11.91
409.274	12.88
409.526	15.28
409.778	15.4
410.031	18.15
410.283	17.86
410.536	22.77
410.788	22.66
411.04	22.18
411.293	23.09
411.545	23.67
411.797	23.06
412.049	22.75
412.302	22.45
412.554	23.91
412.806	21.73
413.058	20.34
413.311	21.71
413.563	21.42
413.815	21.4
414.067	19.88
414.319	18.64
414.571	20.28
414.823	18.85
415.075	18.05
415.328	19.26
415.58	23.71
415.832	25.43
416.084	27.45
416.336	26.33
416.588	31.81
416.84	30.32
417.091	32.71
417.343	30.29
417.595	32.42
417.847	33.19
418.099	34.97
418.351	33.69
418.603	35.76
418.855	35.85
419.106	37.39
419.358	39.57
419.61	40.03
419.862	40.93
420.114	39.72
420.365	38.27
420.617	39.21
420.869	39.03
421.12	38.7
421.372	40.11
421.624	39.77
421.875	39.87
422.127	38.46
422.379	41.01
422.63	43.46
422.882	44.75
423.133	46.13
423.385	46.5
423.636	48.52
423.888	50.27
424.139	52.96
424.391	50.77
424.642	49.36
424.894	49.58
425.145	51.61
425.396	49.92
425.648	53.77
425.899	53.42
426.151	55.77
426.402	55.78
426.653	58.62
426.905	58.87
427.156	57.33
427.407	58.09
427.658	59.26
427.91	59.43
428.161	61.77
428.412	65.78
428.663	68.89
428.914	72.41
429.166	75.97
429.417	78.27
429.668	80.77
429.919	81.54
430.17	81.74
430.421	84.42
430.672	88.72
430.923	90.55
431.174	92.05
431.425	93.56
431.676	94.84
431.927	94.15
432.178	97.73
432.429	102.05
432.68	102.56
432.931	107.99
433.182	113.75
433.433	113.56
433.683	117.18
433.934	118.52
434.185	120.04
434.436	120.79
434.687	124.39
434.937	127.65
435.188	130.96
435.439	133.71
435.69	138.92
435.94	141.39
436.191	144.01
436.442	147.05
436.692	148.85
436.943	149.84
437.194	152.3
437.444	157.08
437.695	163.19
437.945	167.86
438.196	170.26
438.447	172.78
438.697	176.11
438.948	178.92
439.198	181.77
439.449	182.47
439.699	187.8
439.949	192.24
440.2	196.13
440.45	201.81
440.701	204.52
440.951	207.92
441.201	213.65
441.452	217.03
441.702	220.5
441.952	228.75
442.203	234.39
442.453	236.95
442.703	244.36
442.953	249.23
443.204	255.88
443.454	259.43
443.704	263.65
443.954	267.27
444.204	272.41
444.455	277.16
444.705	283.59
444.955	288.44
445.205	293.02
445.455	298.32
445.705	304.5
445.955	309.19
446.205	314.26
446.455	320.71
446.705	326.24
446.955	333.19
447.205	342.09
447.455	349.43
447.705	353.22
447.955	358.7
448.205	365.2
448.454	370.73
448.704	376.64
448.954	380.04
449.204	386.62
449.454	393.31
449.704	395.98
449.953	401.83
450.203	409.6
450.453	413.48
450.703	419.1
450.952	421.77
451.202	427.44
451.452	432.26
451.701	439.64
451.951	446.31
452.201	449.43
452.45	451.31
452.7	456.46
452.949	459.71
453.199	461.23
453.448	464.04
453.698	468.18
453.947	467.84
454.197	468.24
454.446	468.36
454.696	469.43
454.945	468.11
455.195	467.17
455.444	467.06
455.693	467.92
455.943	464.49
456.192	464
456.442	463.09
456.691	462.41
456.94	458.96
457.189	453.21
457.439	452.55
457.688	449.99
457.937	445.21
458.186	441.47
458.436	437.79
458.685	435.59
458.934	428.94
459.183	423.84
459.432	419.58
459.681	415.06
459.93	410.48
460.179	405.95
460.429	399.83
460.678	398.54
460.927	396.14
461.176	390.58
461.425	385.01
461.674	384.44
461.923	379.49
462.172	373.37
462.42	367.63
462.669	363.58
462.918	357.37
463.167	353.56
463.416	347.76
463.665	345.5
463.914	340.65
464.162	335.16
464.411	331.24
464.66	329.28
464.909	326.29
465.158	322.35
465.406	318.59
465.655	316.41
465.904	314.26
466.152	311.08
466.401	306.94
466.65	306.73
466.898	302.72
467.147	296.16
467.395	291.34
467.644	289.9
467.893	287.29
468.141	283.92
468.39	277.04
468.638	272.47
468.887	267.8
469.135	265.44
469.384	261.8
469.632	260.5
469.88	258.48
470.129	258.11
470.377	253.5
470.626	255.06
470.874	254.7
471.122	254.19
471.371	250.05
471.619	246.35
471.867	245.57
472.115	243.64
472.364	240.48
472.612	241
472.86	235.78
473.108	233.85
473.356	231.67
473.605	228.82
473.853	225.18
474.101	223.63
474.349	220.47
474.597	221.29
474.845	219.48
475.093	217.5
475.341	213.55
475.589	212.18
475.837	212.09
476.085	210.76
476.333	207.56
476.581	208.51
476.829	206.15
477.077	206.89
477.325	203.92
477.573	204.84
477.821	201.6
478.069	202.77
478.317	200.69
478.564	199.65
478.812	195.95
479.06	193.83
479.308	191.34
479.555	191.25
479.803	188.76
480.051	188.47
480.299	188.19
480.546	189.06
480.794	186.5
481.042	185.65
481.289	184.19
481.537	184.86
481.784	183.86
482.032	185.61
482.28	184.81
482.527	185.02
482.775	185.45
483.022	187.81
483.27	188.25
483.517	190.75
483.765	190.97
484.012	192.3
484.259	190.4
484.507	191.55
484.754	192.07
485.002	193.14
485.249	191.86
485.496	195.05
485.744	194.95
485.991	194.6
486.238	193.72
486.486	198.06
486.733	200.03
486.98	204.41
487.227	203.34
487.474	206.15
487.722	209.01
487.969	207.82
488.216	208.83
488.463	209.89
488.71	209.65
488.957	210.09
489.204	210.7
489.451	212.09
489.699	213.35
489.946	211.45
490.193	211.67
490.44	214.36
490.687	214.79
490.934	214.17
491.18	212.36
491.427	215.31
491.674	218.63
491.921	219.66
492.168	221.91
492.415	220.3
492.662	222
492.909	225.32
493.155	225.91
493.402	224.9
493.649	225.64
493.896	227.94
494.142	225.13
494.389	225.48
494.636	224.99
494.883	223.97
495.129	223.34
495.376	221.69
495.623	222.58
495.869	224.98
496.116	227.88
496.362	231.36
496.609	236.24
496.855	242.39
497.102	243.18
497.348	243.65
497.595	247.01
497.841	253.33
498.088	252.47
498.334	254.78
498.581	254
498.827	256.24
499.074	258.01
499.32	259.97
499.566	264.41
499.813	265.38
500.059	266.16
500.305	267.28
500.552	268.79
500.798	269.5
501.044	275.24
501.29	275.08
501.537	274.74
501.783	279.71
502.029	284.33
502.275	284.06
502.521	285.72
502.767	288.09
503.013	293.51
503.26	293.75
503.506	293.53
503.752	295.97
503.998	294.56
504.244	295.42
504.49	293.59
504.736	295.62
504.982	295.91
505.228	299.33
505.474	299.16
505.72	300.89
505.966	300.88
506.211	307.26
506.457	306.76
506.703	305.07
506.949	305.47
507.195	304.84
507.441	302.43
507.686	306.5
507.932	307.57
508.178	309.96
508.424	309.29
508.669	308.85
508.915	309.72
509.161	312.15
509.406	312.45
509.652	312.03
509.898	315.8
510.143	317.3
510.389	317.33
510.634	314.5
510.88	319.14
511.125	322.5
511.371	323.93
511.616	326.89
511.862	325.72
512.107	324.82
512.353	326.48
512.598	327.88
512.844	325.82
513.089	324.07
513.335	325.42
513.58	325.26
513.825	325.56
514.071	325.88
514.316	327.19
514.561	327.97
514.806	328
515.052	332.36
515.297	331.04
515.542	332.85
515.787	333.09
516.033	335.48
516.278	335.26
516.523	334.96
516.768	334.65
517.013	333.44
517.258	333.44
517.503	333.09
517.748	334.11
517.993	333.12
518.238	332.83
518.483	331.2
518.728	329.9
518.973	328.2
519.218	328
519.463	328.96
519.708	328.19
519.953	327.6
520.198	328.14
520.443	330.84
520.688	333.64
520.933	334.16
521.177	334.97
521.422	331.48
521.667	335.48
521.912	334.62
522.157	332.38
522.401	335.11
522.646	334.67
522.891	335.65
523.135	335.43
523.38	335.89
523.625	334.62
523.869	337.49
524.114	339.78
524.358	339.82
524.603	340.23
524.848	339.64
525.092	339.68
525.337	341.2
525.581	344.02
525.826	345.31
526.07	347.1
526.315	349.52
526.559	348.42
526.803	347.31
527.048	349.97
527.292	352.45
527.537	352.61
527.781	352.21
528.025	350.64
528.269	352.49
528.514	353.09
528.758	351.55
529.002	354.12
529.247	355.85
529.491	356.52
529.735	360.6
529.979	359.97
530.223	361.53
530.467	358.93
530.712	357.12
530.956	356.07
531.2	357.92
531.444	356.09
531.688	357.46
531.932	356.45
532.176	358.04
532.42	360.02
532.664	361.83
532.908	360.36
533.152	359.65
533.396	360.11
533.64	359.2
533.884	355.4
534.128	356.48
534.371	358.05
534.615	358.82
534.859	356.41
535.103	355.66
535.347	356.17
535.59	357.45
535.834	354.31
536.078	354.11
536.322	355.57
536.565	357.81
536.809	356
537.053	357.97
537.296	356.1
537.54	355.22
537.784	354.86
538.027	356.68
538.271	356.34
538.514	355.65
538.758	355.58
539.001	353.11
539.245	353.7
539.488	355.37
539.732	356.62
539.975	355.35
540.219	355.38
540.462	355.73
540.706	356.74
540.949	356.76
541.192	356.16
541.436	362.44
541.679	366.19
541.922	366.34
542.166	363.01
542.409	363.77
542.652	364.55
542.895	364.33
543.139	363.58
543.382	367.36
543.625	367.74
543.868	367.76
544.111	365.5
544.354	364.62
544.598	362.91
544.841	362.13
545.084	362.64
545.327	360.94
545.57	361.16
545.813	363.24
546.056	362.85
546.299	362.35
546.542	364.18
546.785	364.43
547.028	364.45
547.271	361.94
547.514	360.77
547.756	359.88
547.999	360.65
548.242	360.67
548.485	359.03
548.728	359.79
548.971	355.04
549.213	354.39
549.456	352.93
549.699	352.96
549.942	353.3
550.184	352.48
550.427	351.99
550.67	353
550.912	348.09
551.155	348.92
551.398	349.13
551.64	348.42
551.883	346.97
552.125	345.53
552.368	346.44
552.61	343.47
552.853	344.12
553.095	343.9
553.338	342.84
553.58	342.15
553.823	341.31
554.065	344.63
554.308	341.12
554.55	338.56
554.792	337.14
555.035	337.12
555.277	335.41
555.519	334.51
555.762	332.87
556.004	333.29
556.246	330.4
556.488	330.58
556.731	326.48
556.973	327.33
557.215	325.67
557.457	326.84
557.699	328.98
557.941	328.87
558.183	327.33
558.426	329.4
558.668	325.24
558.91	325.17
559.152	325.59
559.394	326.73
559.636	327.94
559.878	328.37
560.12	327.75
560.362	328.92
560.604	327.47
560.845	326.84
561.087	326.81
561.329	328.82
561.571	326.12
561.813	326.92
562.055	326.98
562.297	328.57
562.538	329.6
562.78	331.53
563.022	329.6
563.264	329.91
563.505	328.8
563.747	329.93
563.989	328.35
564.23	328.85
564.472	327.87
564.714	331.01
564.955	332.31
565.197	330.15
565.438	329.94
565.68	333.42
565.921	331.82
566.163	334.22
566.404	334.03
566.646	334.9
566.887	335.71
567.129	337.89
567.37	336.31
567.612	339.23
567.853	337.44
568.094	339.42
568.336	339.12
568.577	339.12
568.818	340.34
569.06	337.96
569.301	336.94
569.542	338.07
569.783	339.04
570.025	338.78
570.266	338.5
570.507	340.16
570.748	339.31
570.989	340.33
571.23	342.21
571.472	342.19
571.713	341.69
571.954	341.69
572.195	338.13
572.436	339.05
572.677	340.48
572.918	341.77
573.159	339.39
573.4	337.83
573.641	337.3
573.882	336.21
574.123	333.26
574.364	328.83
574.604	328.48
574.845	327.58
575.086	326.58
575.327	326.33
575.568	323.97
575.809	322.19
576.049	321.33
576.29	317.29
576.531	322.01
576.771	324.2
577.012	324.13
577.253	323.65
577.494	322.93
577.734	321.97
577.975	321.65
578.215	321.02
578.456	319.74
578.697	319.6
578.937	321.24
579.178	319.25
579.418	317.79
579.659	318.29
579.899	312.96
580.14	310.75
580.38	308.66
580.62	306.23
580.861	308.41
581.101	305.66
581.342	306.3
581.582	303.99
581.822	306.86
582.063	304.81
582.303	305.28
582.543	305.54
582.783	306.91
583.024	307.62
583.264	310.47
583.504	308.73
583.744	308.48
583.984	304.63
584.224	303.69
584.465	301.99
584.705	301.27
584.945	300.97
585.185	300.55
585.425	300.03
585.665	299.77
585.905	297.19
586.145	295.02
586.385	291.89
586.625	293.99
586.865	293.11
587.105	291.47
587.345	291.85
587.585	291.25
587.824	291.08
588.064	291.24
588.304	287.96
588.544	288.58
588.784	285.1
589.024	286.07
589.263	282.97
589.503	280.58
589.743	281.45
589.982	278.95
590.222	277.91
590.462	276.01
590.701	272.83
590.941	273.48
591.181	273.22
591.42	271.3
591.66	272.67
591.899	276.01
592.139	275.11
592.378	274.6
592.618	272.52
592.857	272.02
593.097	272.57
593.336	273.55
593.576	272.57
593.815	273.29
594.055	273.26
594.294	274.45
594.533	274.12
594.773	273.19
595.012	275.25
595.251	274.51
595.491	277.35
595.73	278.68
595.969	279.47
596.208	280.53
596.447	284.37
596.687	285.99
596.926	286.61
597.165	283.26
597.404	285.9
597.643	284.27
597.882	283.08
598.121	284.45
598.36	284.48
598.599	286.08
598.838	286.79
599.077	283.37
599.316	281.81
599.555	281.2
599.794	281.73
600.033	284.01
600.272	284.81
600.511	282.86
600.75	283.85
600.989	285.72
601.228	285.48
601.466	283.7
601.705	283.18
601.944	284.23
602.183	286.28
602.422	283.58
602.66	282.72
602.899	280.76
603.138	280.63
603.376	278.92
603.615	279.56
603.854	276.53
604.092	275.26
604.331	276.56
604.569	277.93
604.808	275.45
605.047	275.26
605.285	275.14
605.524	274.56
605.762	272.33
606	271.97
606.239	271.65
606.477	271.39
606.716	267.23
606.954	265.34
607.193	261.45
607.431	257.1
607.669	253.99
607.908	252.08
608.146	252.19
608.384	249.79
608.622	247.57
608.861	246.58
609.099	244.6
609.337	242.4
609.575	240.19
609.813	240.63
610.052	239.62
610.29	234.03
610.528	230.55
610.766	229.55
611.004	228.19
611.242	226.76
611.48	225.64
611.718	221.36
611.956	219.62
612.194	217.7
612.432	215.09
612.67	211.88
612.908	211.83
613.146	211.35
613.384	207.88
613.621	205.22
613.859	204.81
614.097	202.88
614.335	202.31
614.573	203.44
614.811	203.93
615.048	202.28
615.286	202.43
615.524	200.24
615.761	197.01
615.999	197.25
616.237	195.71
616.474	197.3
616.712	196.52
616.95	193.51
617.187	191.4
617.425	191.72
617.662	193.42
617.9	191.32
618.137	189.05
618.375	185.99
618.612	181.98
618.85	182.09
619.087	184.67
619.325	182.95
619.562	181.95
619.799	180.7
620.037	180.36
620.274	177.58
620.511	177.87
620.749	175.06
620.986	173.65
621.223	170.07
621.461	169.75
621.698	169.69
621.935	167.69
622.172	165.88
622.409	167.83
622.647	165.62
622.884	163.42
623.121	164.67
623.358	162.22
623.595	161.98
623.832	159.4
624.069	157.46
624.306	157.89
624.543	158.68
624.78	157.72
625.017	156.84
625.254	160.71
625.491	162.29
625.728	163.98
625.965	164.84
626.202	162.22
626.438	158.25
626.675	157
626.912	157.15
627.149	158.03
627.386	156.97
627.622	154.91
627.859	153.74
628.096	153.35
628.333	152.88
628.569	154.22
628.806	155.8
629.043	154.19
629.279	153.65
629.516	154.39
629.752	150.09
629.989	149.81
630.225	147.71
630.462	146.04
630.699	144.91
630.935	143.88
631.171	141.68
631.408	141.85
631.644	139.22
631.881	136.52
632.117	134.36
632.354	134.06
632.59	131.09
632.826	128.64
633.063	126.61
633.299	127.46
633.535	126.45
633.771	126.51
634.008	127.47
634.244	125.96
634.48	123.52
634.716	125.8
634.953	124.47
635.189	123.05
635.425	124.2
635.661	126.96
635.897	123.15
636.133	120.46
636.369	119.69
636.605	117.3
636.841	116.89
637.077	118.12
637.313	117.91
637.549	117.5
637.785	116.37
638.021	117.82
638.257	116.74
638.493	118.19
638.729	117.22
638.965	120.59
639.2	120.48
639.436	118.52
639.672	116.98
639.908	114.45
640.144	117.95
640.379	120.9
640.615	118.06
640.851	120.04
641.086	119.78
641.322	118.06
641.558	118.31
641.793	119.14
642.029	115.3
642.264	115.41
642.5	114.25
642.736	111.03
642.971	110.42
643.207	109.7
643.442	108.45
643.678	108.08
643.913	108.35
644.148	105.84
644.384	106.21
644.619	105.95
644.855	107.81
645.09	108.1
645.325	106.95
645.561	105.87
645.796	103.06
646.031	104.69
646.266	101.47
646.502	99.54
646.737	101.34
646.972	100.13
647.207	100.01
647.442	96.07
647.678	92.33
647.913	93.82
648.148	92.24
648.383	89.56
648.618	89.08
648.853	90.04
649.088	91.9
649.323	94.52
649.558	95.72
649.793	96.62
650.028	96.57
650.263	92.1
650.498	94.83
650.733	93.44
650.968	92.52
651.202	95.35
651.437	93.8
651.672	90.93
651.907	89.81
652.142	89.32
652.376	89.24
652.611	89.48
652.846	91.4
653.081	91.76
653.315	89.61
653.55	88.87
653.785	88.94
654.019	90.37
654.254	89.09
654.488	89.64
654.723	86.98
654.958	83.93
655.192	82.33
655.427	79.51
655.661	81.66
655.896	83.3
656.13	83.57
656.364	79.85
656.599	75.69
656.833	80.61
657.068	81.5
657.302	80.48
657.536	79.59
657.771	79.59
658.005	82.95
658.239	82.35
658.474	78.9
658.708	80.03
658.942	79.51
659.176	77.82
659.41	74.17
659.645	72.25
659.879	70.55
660.113	66.43
660.347	65.57
660.581	63.53
660.815	63.39
661.049	61.68
661.283	57.59
661.517	55.77
661.751	54.31
661.985	52.88
662.219	55
662.453	53.42
662.687	54.23
662.921	50.38
663.155	48.98
663.389	42.72
663.622	41.42
663.856	43.67
664.09	37
664.324	37.16
664.558	38.82
664.791	38.05
665.025	36.26
665.259	33.1
665.492	32.6
665.726	33.94
665.96	33.54
666.193	32.51
666.427	33.54
666.661	33.61
666.894	33.11
667.128	32.39
667.361	34.57
667.595	33.22
667.828	32.04
668.062	30.3
668.295	30.97
668.529	31.31
668.762	31.7
668.995	30.79
669.229	34.47
669.462	34
669.695	33.24
669.929	31.01
670.162	33.19
670.395	31.02
670.629	32.08
670.862	32.77
671.095	30.12
671.328	30.27
671.561	25.53
671.795	25.11
672.028	25.53
672.261	25.86
672.494	26.3
672.727	23.93
672.96	24.04
673.193	22.77
673.426	26.55
673.659	26.47
673.892	26.64
674.125	26.11
674.358	26.53
674.591	24.36
674.824	23.87
675.057	23.41
675.29	22.21
675.523	23.26
675.755	21.98
675.988	23.52
676.221	25.01
676.454	22.67
676.687	24.23
676.919	25.28
677.152	26.62
677.385	24.92
677.617	26.37
677.85	27.25
678.083	25.05
678.315	27.03
678.548	24.87
678.78	25.35
679.013	25.54
679.246	26.8
679.478	27.16
679.711	26.77
679.943	28.78
680.175	25.94
680.408	29.05
680.64	24.84
680.873	25.69
681.105	27.59
681.338	30.53
681.57	29.38
681.802	31.14
682.034	31.36
682.267	33.95
682.499	35.01
682.731	32.53
682.964	32.04
683.196	29.8
683.428	28.65
683.66	28.91
683.892	31.29
684.124	32.24
684.356	34.62
684.589	34.43
684.821	32.39
685.053	32.02
685.285	33.12
685.517	34.29
685.749	34.64
685.981	35.77
686.213	35.87
686.445	35.94
686.676	33.53
686.908	33.37
687.14	31.8
687.372	32.67
687.604	29
687.836	30.63
688.068	28.77
688.299	26.44
688.531	24.31
688.763	28.01
688.995	26.7
689.226	29.06
689.458	27.44
689.69	27.76
689.921	26.91
690.153	27.18
690.384	28.62
690.616	27.87
690.848	28.34
691.079	24.25
691.311	22.17
691.542	18.97
691.774	18.84
692.005	21.32
692.237	24.16
692.468	22.69
692.699	21.81
692.931	21.48
693.162	18.42
693.393	17
693.625	14.08
693.856	15.62
694.087	15.03
694.319	17.42
694.55	17.15
694.781	17.62
695.012	17.15
695.243	15.87
695.475	15.15
695.706	15.28
695.937	13.57
696.168	12.71
696.399	10.83
696.63	10.81
696.861	9.95
697.092	15.03
697.323	18.2
697.554	18.14
697.785	19.51
698.016	19.74
698.247	18.79
698.478	19.35
698.709	19.86
698.94	20.81
699.171	20.02
699.401	16.21
699.632	18.63
699.863	16.03
700.094	16.42
700.325	20.08
700.555	19.95
700.786	23.06
701.017	23.11
701.247	23.62
701.478	22.54
701.709	22.17
701.939	20.43
702.17	20.35
702.401	24.51
702.631	24.86
702.862	22.69
703.092	19.64
703.323	22.23
703.553	22.55
703.784	22.52
704.014	22.88
704.244	17.63
704.475	15.78
704.705	15.78
704.936	14.49
705.166	13.36
705.396	13.43
705.627	13.4
705.857	14.17
706.087	14.95
706.317	13.05
706.548	11.19
706.778	10.14
707.008	10.95
707.238	10.45
707.468	8.33
707.698	8.03
707.928	5.93
708.158	4.96
708.389	3.81
708.619	2.48
708.849	2.29
709.079	5.2
709.309	3.26
709.539	-0.26
709.768	1.01
709.998	4.79
710.228	5.24
710.458	3.24
710.688	0.81
710.918	1.71
711.148	1.17
711.378	2.86
711.607	1.07
711.837	1.7
712.067	2.73
712.297	4.02
712.526	4.93
712.756	6.67
712.986	3.72
713.215	1.83
713.445	2.34
713.674	4.17
713.904	4.45
714.134	6.34
714.363	7.18
714.593	6.5
714.822	6.9
715.052	6.3
715.281	6.49
715.511	6.11
715.74	6.15
715.969	4.38
716.199	2.97
716.428	4.92
716.657	4.96
716.887	5.8
717.116	2.24
717.345	3.72
717.575	4.15
717.804	4.36
718.033	2.79
718.262	1.22
718.492	1
718.721	1.58
718.95	1.58
719.179	0.04
719.408	-1.05
719.637	-3.53
719.866	-7.26
720.095	-4.55
720.324	-6.08
720.553	-9.75
720.782	-11.04
721.011	-11.64
721.24	-13.97
721.469	-14.3
721.698	-13.64
721.927	-14.49
722.156	-14.6
722.385	-15.3
722.613	-11.64
722.842	-10.88
723.071	-7.9
723.3	-6.94
723.529	-9.41
723.757	-9.25
723.986	-10.89
724.215	-10.68
724.443	-10.33
724.672	-8.82
724.901	-7.19
725.129	-5.75
725.358	-1.3
725.586	-3.85
725.815	-3.41
726.043	-4.48
726.272	-7.28
726.5	-6.64
726.729	-5.9
726.957	-6.61
727.186	-8.78
727.414	-6.13
727.642	-2.7
727.871	-0.65
728.099	-0.73
728.327	-0.65
728.556	-0.35
728.784	1.34
729.012	-0.2
729.241	1.74
729.469	0.84
729.697	-3.21
729.925	-3.38
730.153	-5.03
730.381	-5.61
730.61	-4.43
730.838	-6.58
731.066	-6.06
731.294	-5.77
731.522	-8.32
731.75	-11.75
731.978	-12.87
732.206	-13.05
732.434	-14.81
732.662	-12.61
732.89	-14.69
733.118	-14.5
733.346	-12.21
733.573	-12.44
733.801	-11.2
734.029	-4.6
734.257	-2.34
734.485	-0.12
734.712	0.9
734.94	-1.77
735.168	1.48
735.396	0.92
735.623	0.64
735.851	0.48
736.078	3.07
736.306	3.93
736.534	3.64
736.761	4.37
736.989	1.74
737.216	0.83
737.444	-0.78
737.671	0.46
737.899	5.5
738.126	4.06
738.354	3.35
738.581	3.53
738.809	4.59
739.036	3.13
739.263	2.38
739.491	0.48
739.718	-1.45
739.945	3.46
740.173	4.39
740.4	4.02
740.627	1.39
740.854	0.24
741.081	-3.38
741.309	-5.22
741.536	-8.91
741.763	-10.09
741.99	-8.18
742.217	-9.33
742.444	-8.55
742.671	-8.37
742.898	-9.86
743.125	-13.21
743.352	-15.85
743.579	-16.01
743.806	-16.08
744.033	-12.18
744.26	-9.76
744.487	-10.31
744.714	-10.63
744.941	-11.65
745.167	-8.81
745.394	-8.83
745.621	-7.82
745.848	-8.68
746.075	-6.12
746.301	-2.93
746.528	-0.29
746.755	0.28
746.981	-0.36
747.208	-0.7
747.435	1.33
747.661	2.27
747.888	1.52
748.114	0.15
748.341	2.52
748.567	3.63
748.794	1.24
749.02	0.83
749.247	-1.59
749.473	-2.25
749.7	-2.15
749.926	-2.26
750.152	1.86
750.379	1.72
750.605	3.39
750.831	4.08
751.058	2.01
751.284	0.23
751.51	2.55
751.737	4.03
751.963	1.23
752.189	0.69
752.415	-0.74
752.641	-0.98
752.867	-1.23
753.094	-2.52
753.32	-4.74
753.546	-6.12
753.772	-4.6
753.998	-6.58
754.224	-5.74
754.45	-5.84
754.676	-4.32
754.902	-2.37
755.128	-2.44
755.354	-4.31
755.579	-4.09
755.805	-1.43
756.031	-2.39
756.257	-2.42
756.483	-2.17
756.709	-3.73
756.934	-1.98
757.16	-3.94
757.386	-2.77
757.612	-5.06
757.837	-6.48
758.063	-5.2
758.289	-3.72
758.514	-5.48
758.74	-9.33
758.965	-10.59
759.191	-9.88
759.416	-7.97
759.642	-6.07
759.868	-4.15
760.093	-2.05
760.318	-3.05
760.544	-1.79
760.769	-2.69
760.995	-3.64
761.22	-4.46
761.445	-4.25
761.671	-3.85
761.896	-2.26
762.121	-2.33
762.347	-1.65
762.572	-2.96
762.797	-2.93
763.022	-2.55
763.248	0.93
763.473	1.94
763.698	2.34
763.923	2.22
764.148	1.27
764.373	0.13
764.598	1.68
764.823	3.1
765.048	1.93
765.273	-0.65
765.498	-0.53
765.723	1.35
765.948	2.57
766.173	1.44
766.398	2.35
766.623	-0.54
766.848	-0.76
767.073	-2.5
767.298	-2.73
767.522	-3.24
767.747	-1.51
767.972	-1.43
768.197	-0.91
768.421	-2.72
768.646	-6.03
768.871	-9.08
769.095	-8.32
769.32	-7.46
769.545	-7.29
769.769	-5.98
769.994	-5.45
770.218	-8.65
770.443	-8.16
770.667	-7.92
770.892	-8.37
771.116	-8.33
771.341	-6.73
771.565	-7.08
771.79	-7.19
772.014	-8.67
772.238	-8.4
772.463	-6.47
772.687	-6.06
772.911	-5.34
773.136	-7.07
773.36	-6.44
773.584	-4.55
773.808	-7.27
774.033	-7.46
774.257	-6.31
774.481	-7.47
774.705	-8.59
774.929	-9.1
775.153	-8.52
775.377	-6.53
775.602	-5.75
775.826	-4.68
776.05	-2.42
776.274	-4.29
776.498	-2.95
776.722	-4.59
776.945	-3.22
777.169	-2.24
777.393	-3.51
777.617	-4.41
777.841	-4.09
778.065	-2.6
778.289	-3.15
778.512	-4.54
778.736	-4.65
778.96	-3.22
779.184	-1.49
779.407	-4.01
779.631	-5.21
779.855	-7.03
780.078	-6.09
780.302	-7.07
780.526	-9.71
780.749	-8.75
780.973	-7.45
781.196	-8.37
781.42	-9.16
781.643	-9.62
781.867	-7.58
782.09	-10.07
782.314	-10.02
782.537	-10.02
782.76	-9.8
782.984	-9.66
783.207	-9.39
783.431	-11.64
783.654	-13.64
783.877	-15.85
784.1	-17.29
784.324	-18.86
784.547	-18.63
784.77	-22.84
784.993	-24.81
785.216	-26.53
785.44	-24.98
785.663	-25.48
785.886	-23.93
786.109	-24.71
786.332	-23.79
786.555	-22.16
786.778	-21.21
787.001	-20.49
787.224	-21.31
787.447	-19.29
787.67	-17.01
787.893	-16.64
788.116	-15.85
788.339	-14.6
788.561	-15.15
788.784	-19.3
789.007	-20.85
789.23	-22.1
789.453	-22.21
789.675	-23.63
789.898	-26.32
790.121	-27.32
790.344	-27.53
790.566	-25.43
790.789	-24.99
791.012	-24.9
791.234	-21.67
791.457	-18.92
791.679	-16.31
791.902	-15.76
792.124	-14.82
792.347	-16.03
792.569	-17.1
792.792	-20.56
793.014	-17.91
793.237	-16.4
793.459	-17.48
793.681	-16.51
793.904	-18.74
794.126	-19.39
794.348	-20.97
794.571	-21.1
794.793	-22.92
795.015	-22.88
795.237	-23.89
795.46	-23.12
795.682	-22.57
795.904	-19.59
796.126	-22.5
796.348	-22.79
796.57	-20.09
796.792	-17.89
797.014	-15.02
797.237	-12.46
797.459	-10.77
797.681	-10.62
797.903	-11.59
798.124	-11.07
798.346	-2.64
798.568	-2.71
798.79	1.34
799.012	3.85
799.234	6.01
799.456	7.87
799.678	10.61
799.899	8.22
800.121	5.68
800.343	5.2
800.565	4.86
800.786	6.08
801.008	9.49
801.23	9.77
801.451	9.79
801.673	8.83
801.895	8.22
802.116	9.75
802.338	10.43
802.559	10.98
802.781	9.49
803.002	13.02
803.224	14.06
803.445	10.96
803.667	10.84
803.888	9.63
804.109	9.74
804.331	8.72
804.552	9.33
804.773	11.23
804.995	8.49
805.216	-1.59
805.437	-2.64
805.658	-6.08
805.88	-8.87
806.101	-8.09
806.322	-8.4
806.543	-9.78
806.764	-11.65
806.985	-9.28
807.207	-7.06
807.428	-6.25
807.649	-8.21
807.87	-11.22
808.091	-9.83
808.312	-9.51
808.533	-5.73
808.754	-3.89
808.975	-6.03
809.195	-3.76
809.416	-3
809.637	-3.08
809.858	-4.85
810.079	-5.11
810.3	-2.99
810.52	-3.6
810.741	-5.65
810.962	-8.21
811.183	-8.93
811.403	-9.41
811.624	-9.02
811.845	-7.25
812.065	-7.58
812.286	-7.15
812.506	-7.28
812.727	-6.91
812.948	-8.76
813.168	-6.56
813.389	-7.55
813.609	-6.13
813.83	-7.16
814.05	-8.92
814.27	-8.9
814.491	-5.8
814.711	-7.07
814.931	-9.99
815.152	-9.9
815.372	-12.18
815.592	-14.26
815.813	-13.84
816.033	-16.15
816.253	-14.47
816.473	-14.94
816.694	-14.23
816.914	-12.41
817.134	-12.48
817.354	-13.84
817.574	-13.28
817.794	-12.89
818.014	-14.65
818.234	-15.18
818.454	-16.88
818.674	-19.46
818.894	-20.97
819.114	-18.73
819.334	-18.02
819.554	-17.66
819.774	-14.35
819.994	-16.48
820.214	-16.32
820.433	-16.16
820.653	-16.72
820.873	-15.34
821.093	-14.96
821.312	-16.79
821.532	-14.29
821.752	-12.05
821.972	-14.1
822.191	-13.06
822.411	-12.76
822.63	-12.06
822.85	-11.58
823.07	-14.78
823.289	-14.49
823.509	-16.13
823.728	-16.57
823.948	-17.41
824.167	-17.67
824.387	-17.69
824.606	-15.93
824.825	-15.78
825.045	-15.53
825.264	-16.34
825.483	-14.73
825.703	-12.76
825.922	-14.1
826.141	-14.22
826.361	-13.75
826.58	-19.04
826.799	-21.11
827.018	-19.74
827.237	-18.96
827.456	-17.33
827.676	-18.19
827.895	-18.55
828.114	-17.56
828.333	-17.2
828.552	-17.32
828.771	-15.82
828.99	-17.2
829.209	-17.26
829.428	-15.2
829.647	-16.11
829.866	-15.09
830.084	-14.88
830.303	-14.14
830.522	-14.79
830.741	-15.12
830.96	-13.71
831.179	-13.13
831.397	-13.92
831.616	-13.35
831.835	-13.73
832.053	-12.76
832.272	-11.41
832.491	-11.33
832.709	-12.41
832.928	-13.06
833.147	-13.66
833.365	-10.45
833.584	-6.81
833.802	-5.28
834.021	-5.31
834.239	-5.97
834.458	-6.44
834.676	-8.4
834.894	-9.78
835.113	-11.21
835.331	-10.94
835.55	-11.26
835.768	-10.64
835.986	-9.57
836.204	-11.23
836.423	-9.8
836.641	-10.45
836.859	-10.27
837.077	-8.64
837.296	-8.58
837.514	-10.13
837.732	-11.98
837.95	-13.15
838.168	-11.63
838.386	-12.67
838.604	-9.68
838.822	-9.6
839.04	-11.57
839.258	-11.06
839.476	-10
839.694	-8.98
839.912	-10.27
840.13	-11.55
840.348	-9.73
840.566	-11.86
840.783	-10.25
841.001	-11.35
841.219	-10.01
841.437	-9.19
841.655	-6.81
841.872	-6.56
842.09	-7.37
842.308	-7.25
842.525	-6.47
842.743	-5.73
842.961	-6.21
843.178	-8.14
843.396	-4.63
843.613	-4.34
843.831	-4.82
844.048	-4.31
844.266	-3.84
844.483	-3.71
844.701	-4.01
844.918	-4.88
845.136	-4.22
845.353	-6.35
845.57	-5.13
845.788	-2.02
846.005	-3.85
846.222	-4.84
846.439	-3.76
846.657	-2.89
846.874	-2.8
847.091	-5.58
847.308	-4.31
847.526	-6.01
847.743	-5.19
847.96	-7.79
848.177	-7.87
848.394	-10.2
848.611	-10.71
848.828	-11.31
849.045	-11.98
849.262	-12.23
849.479	-11.64
849.696	-14.31
849.913	-16.29
850.13	-19.32
850.347	-18.06
850.564	-17.5
850.78	-19.3
850.997	-20.06
851.214	-19.97
851.431	-19.61
851.647	-21.44
851.864	-21.13
852.081	-19.3
852.298	-20.83
852.514	-21.9
852.731	-20.6
852.948	-19.15
853.164	-19.89
853.381	-19.74
853.597	-20.6
853.814	-22.51
854.03	-25.22
854.247	-23.19
854.463	-23.56
854.68	-22.44
854.896	-22.28
855.113	-20.96
855.329	-19.98
855.545	-18.11
855.762	-18.49
855.978	-20.8
856.194	-23.27
856.411	-18.38
856.627	-15.77
856.843	-15.85
857.059	-14.04
857.275	-15.78
857.492	-15.45
857.708	-12.48
857.924	-11.16
858.14	-8.52
858.356	-10.3
858.572	-9.78
858.788	-11.66
859.004	-12.15
859.22	-14.48
859.436	-14.3
859.652	-15.1
859.868	-16.89
860.084	-17.25
860.3	-17.03
860.516	-16.77
860.731	-16.04
860.947	-17.48
861.163	-15.6
861.379	-14.36
861.595	-12.68
861.81	-10.91
862.026	-11.35
862.242	-11.13
862.457	-11.25
862.673	-9.78
862.889	-9.21
863.104	-10.17
863.32	-10.44
863.535	-9.74
863.751	-12.94
863.966	-9.66
864.182	-7.17
864.397	-8.59
864.613	-9.75
864.828	-11.33
865.044	-8.35
865.259	-8.2
865.474	-8.91
865.69	-5.58
865.905	-4.94
866.12	-5.82
866.336	-5.32
866.551	-3.56
866.766	-3.63
866.981	-3.5
867.196	-2.56
867.412	-1.83
867.627	-3.33
867.842	-4.96
868.057	-4.96
868.272	-5.4
868.487	-7.76
868.702	-9.16
868.917	-9.84
869.132	-7.63
869.347	-7.81
869.562	-8.76
869.777	-9.53
869.992	-10.4
870.207	-9.94
870.422	-10.69
870.636	-12.23
870.851	-14.43
871.066	-16.36
871.281	-16.91
871.495	-17.79
871.71	-16.49
871.925	-18.18
872.14	-18.37
872.354	-21.95
872.569	-22.88
872.783	-22.24
872.998	-23.39
873.213	-24.12
873.427	-22.08
873.642	-21.84
873.856	-22.04
874.071	-22.31
874.285	-23.05
874.5	-23.74
874.714	-26.06
874.928	-26.57
875.143	-26.17
875.357	-25.27
875.571	-27.01
875.786	-27.47
876	-23.86
876.214	-23.19
876.429	-24.13
876.643	-23.04
876.857	-22.33
877.071	-22.25
877.285	-23.5
877.499	-25.42
877.714	-21.8
877.928	-19.82
878.142	-21.05
878.356	-21.88
878.57	-19.81
878.784	-19.24
878.998	-18.32
879.212	-16.36
879.426	-16.55
879.639	-14.59
879.853	-15.01
880.067	-15.08
880.281	-16.29
880.495	-14.12
880.709	-11.83
880.922	-11.07
881.136	-10.52
881.35	-9.62
881.564	-9.99
881.777	-12.72
881.991	-12.05
882.205	-8.23
882.418	-10.05
882.632	-12.87
882.845	-13.31
883.059	-13.21
883.273	-13.89
883.486	-16.19
883.7	-13.86
883.913	-14.77
884.126	-13.2
884.34	-17.23
884.553	-18.37
884.767	-15.48
884.98	-15.78
885.193	-16.7
885.407	-15.95
885.62	-15.79
885.833	-15.85
886.046	-15.86
886.26	-18.56
886.473	-18.51
886.686	-19.92
886.899	-17.6
887.112	-19.26
887.326	-21.92
887.539	-19.68
887.752	-16.36
887.965	-16.68
888.178	-14.83
888.391	-13.28
888.604	-14.08
888.817	-16.14
889.03	-13.9
889.243	-14.38
889.455	-15.85
889.668	-14.76
889.881	-12.54
890.094	-12.1
890.307	-13.82
890.52	-11.83
890.732	-11
890.945	-9.88
891.158	-9.36
891.37	-11.17
891.583	-11.6
891.796	-10.95
892.008	-13.28
892.221	-14.01
892.434	-16.85
892.646	-16.99
892.859	-15.84
893.071	-15.08
893.284	-13.18
893.496	-14.53
893.709	-14.82
893.921	-12.95
894.133	-14.76
894.346	-17.45
894.558	-17.25
894.771	-18.28
894.983	-15.86
895.195	-14.3
895.407	-14.75
895.62	-17.48
895.832	-17.45
896.044	-15.09
896.256	-17.36
896.468	-18.81
896.681	-18.27
896.893	-17.89
897.105	-18.88
897.317	-20.06
897.529	-18.01
897.741	-17.51
897.953	-15.34
898.165	-16.06
898.377	-17.53
898.589	-15.21
898.801	-14.62
899.013	-12.12
899.224	-10.08
899.436	-8.44
899.648	-9.14
899.86	-10.74
900.072	-8.88
900.283	-7.19
900.495	-6.42
900.707	-5.94
900.919	-8.38
901.13	-7.81
901.342	-10.38
901.554	-12.03
901.765	-12.34
901.977	-13.09
902.188	-12.95
902.4	-14.34
902.611	-14.61
902.823	-14.35
903.034	-16.44
903.246	-17.74
903.457	-18.21
903.669	-18.06
903.88	-17.39
904.091	-17.83
904.303	-17.86
904.514	-19.98
904.725	-18.6
904.936	-16.71
905.148	-17.25
905.359	-16.84
905.57	-17.46
905.781	-19.16
905.992	-19.52
906.204	-17.87
906.415	-16.96
906.626	-17.83
906.837	-16.11
907.048	-17.31
907.259	-18.01
907.47	-17.88
907.681	-19.09
907.892	-15.44
908.103	-16.29
908.314	-17.97
908.525	-15.99
908.735	-15.78
908.946	-15.24
909.157	-16.85
909.368	-15.69
909.579	-13.61
909.789	-13.28
910	-14.07
910.211	-12.26
910.421	-13.17
910.632	-11.97
910.843	-13.81
911.053	-9.68
911.264	-7.84
911.475	-8.74
911.685	-8.75
911.896	-7.75
912.106	-6.24
912.317	-8.02
912.527	-6.4
912.737	-7.69
912.948	-7.62
913.158	-7.78
913.369	-10.74
913.579	-8.63
913.789	-8.63
914	-4.8
914.21	-2.86
914.42	-3.22
914.63	-3.53
914.841	-2.78
915.051	-1.3
915.261	0.42
915.471	0.91
915.681	2.3
915.891	2.63
916.101	0.15
916.311	0.58
916.521	1.69
916.731	1.72
916.941	4.62
917.151	3.24
917.361	6.04
917.571	2.43
917.781	0.11
917.991	-2.25
918.201	-2.26
918.411	-4
918.621	-4.88
918.83	-4.42
919.04	-6.41
919.25	-4.29
919.46	-2.82
919.669	-4.6
919.879	-5.81
920.089	-8.02
920.298	-8.2
920.508	-9.52
920.717	-9.25
920.927	-11.71
921.136	-10.31
921.346	-11.2
921.555	-14.07
921.765	-15.93
921.974	-17.24
922.184	-20.3
922.393	-19.86
922.603	-19.2
922.812	-17.77
923.021	-19.07
923.23	-20.09
923.44	-23.3
923.649	-23.23
923.858	-24.51
924.067	-25.91
924.277	-27.36
924.486	-24.42
924.695	-24.19
924.904	-22.91
925.113	-22.84
925.322	-20.77
925.531	-20.06
925.74	-23.27
925.949	-24.67
926.158	-22.74
926.367	-21.93
926.576	-20.96
926.785	-22.17
926.994	-23.45
927.203	-22.96
927.412	-22.5
927.621	-22.93
927.83	-21.18
928.038	-21.11
928.247	-20.78
928.456	-19.23
928.665	-17.66
928.873	-15.9
929.082	-14.38
929.291	-13.58
929.499	-11.75
929.708	-12.75
929.916	-11.46
930.125	-12.63
930.333	-14.42
930.542	-11.45
930.75	-8.21
930.959	-9.42
931.167	-9.69
931.376	-10.71
931.584	-10.42
931.793	-10.95
932.001	-11.4
932.209	-12.2
932.418	-14.69
932.626	-16.02
932.834	-17.41
933.042	-20.06
933.251	-19.39
933.459	-18.42
933.667	-20.27
933.875	-20.67
934.083	-19.3
934.291	-18.74
934.499	-18.63
934.707	-18.38
934.915	-20.17
935.123	-17.74
935.331	-20.04
935.539	-20.49
935.747	-22.15
935.955	-23.03
936.163	-23.29
936.371	-23.14
936.579	-22.08
936.787	-21.35
936.995	-22.67
937.202	-24.88
937.41	-24.83
937.618	-26.19
937.826	-25.96
938.033	-29.77
938.241	-30.86
938.449	-29.48
938.656	-26.64
938.864	-26.7
939.071	-27.34
939.279	-24.52
939.486	-22.14
939.694	-22.53
939.901	-24.07
940.109	-23.11
940.316	-21.71
940.524	-23.25
940.731	-25.19
940.939	-24.49
941.146	-24.13
941.353	-23.54
941.561	-24.69
941.768	-24.62
941.975	-23.9
942.182	-24.52
942.39	-25.1
942.597	-20.9
942.804	-22.08
943.011	-22.62
943.218	-21.49
943.425	-20.73
943.632	-20.68
943.839	-20.79
944.046	-21.27
944.253	-21.06
944.46	-19.92
944.667	-17.2
944.874	-18.12
945.081	-17.76
945.288	-15.91
945.495	-12.59
945.702	-13.92
945.909	-16.34
946.115	-14.56
946.322	-15.02
946.529	-16.87
946.736	-17.56
946.942	-15.99
947.149	-15.11
947.356	-17.02
947.562	-19.37
947.769	-19.26
947.976	-20.23
948.182	-19.6
948.389	-20.94
948.595	-19.64
948.802	-17.97
949.008	-20.9
949.215	-19.18
949.421	-20.01
949.628	-20.86
949.834	-20.64
950.04	-21.24
950.247	-17.35
950.453	-15.15
950.659	-16.44
950.865	-14.79
951.072	-18.49
951.278	-16.2
951.484	-18.56
951.69	-21.45
951.896	-21.88
952.103	-22.32
952.309	-20.93
952.515	-21.92
952.721	-19.86
952.927	-18.27
953.133	-19.85
953.339	-21.46
953.545	-22.85
953.751	-20.58
953.957	-16.93
954.163	-17.75
954.369	-17.24
954.574	-19.57
954.78	-19.4
954.986	-18.52
955.192	-17.06
955.398	-18.43
955.603	-19.87
955.809	-18.19
956.015	-18.64
956.22	-18.53
956.426	-17.75
956.632	-21.03
956.837	-22.57
957.043	-22.21
957.248	-21.49
957.454	-20.95
957.66	-23.26
957.865	-22.31
958.07	-20.16
958.276	-23.22
958.481	-24.56
958.687	-25.32
958.892	-24.68
959.097	-24.19
959.303	-22.84
959.508	-22.53
959.713	-21.53
959.919	-21.23
960.124	-22.93
960.329	-23.02
960.534	-19.84
960.739	-18.71
960.945	-15.93
961.15	-15.79
961.355	-18.26
961.56	-21.62
961.765	-20.75
961.97	-20.07
962.175	-18.82
962.38	-20.46
962.585	-20.01
962.79	-21.02
962.995	-21.85
963.2	-22.02
963.404	-21.47
963.609	-23.89
963.814	-23.69
964.019	-25.15
964.224	-27.17
964.428	-26.48
964.633	-24.89
964.838	-23.43
965.042	-23.05
965.247	-25.54
965.452	-26.81
965.656	-26.57
965.861	-26.44
966.066	-28.39
966.27	-27.05
966.475	-23.97
966.679	-27.78
966.884	-27.92
967.088	-30.3
967.292	-31.85
967.497	-30
967.701	-30.24
967.906	-29.2
968.11	-27.39
968.314	-25.41
968.518	-26.45
968.723	-22.97
968.927	-22.22
969.131	-20.34
969.335	-17.99
969.539	-17.42
969.744	-16.12
969.948	-12.21
970.152	-11.63
970.356	-11.31
970.56	-10.48
970.764	-10.01
970.968	-8.67
971.172	-8.33
971.376	-8.1
971.58	-5.22
971.784	-4.07
971.988	-5.84
972.192	-3.28
972.395	-3.38
972.599	-4.77
972.803	-6.29
973.007	-3.5
973.21	-3.9
973.414	-3.54
973.618	-3.27
973.822	-5.29
974.025	-5.3
974.229	-4.86
974.432	-9.06
974.636	-10.48
974.84	-8.89
975.043	-10.18
975.247	-12.12
975.45	-13.8
975.654	-14.1
975.857	-12.44
976.06	-13.8
976.264	-16.58
976.467	-15.25
976.671	-16.21
976.874	-15.34
977.077	-16.9
977.28	-17.75
977.484	-18.85
977.687	-19.25
977.89	-18.28
978.093	-18.98
978.297	-17.4
978.5	-19.15
978.703	-17.49
978.906	-16.72
979.109	-17.72
979.312	-18.43
979.515	-18.08
979.718	-19.07
979.921	-18.45
980.124	-19.43
980.327	-18.04
980.53	-18.54
980.733	-16.06
980.936	-14.44
981.138	-16.74
981.341	-16.37
981.544	-17.16
981.747	-16.89
981.949	-18.15
982.152	-17.72
982.355	-16.74
982.558	-13.56
982.76	-15.67
982.963	-14.55
983.165	-12.88
983.368	-11.98
983.571	-12.41
983.773	-9.66
983.976	-8.97
984.178	-9.82
984.381	-10.39
984.583	-12.9
984.785	-12.1
984.988	-10.08
985.19	-8.76
985.392	-8.2
985.595	-10.77
985.797	-10.16
985.999	-6.73
986.202	-5.79
986.404	-6.14
986.606	-4.76
986.808	-4.88
987.01	-3.81
987.212	-5.17
987.415	-6.98
987.617	-6.82
987.819	-4.94
988.021	-4.48
988.223	-5.99
988.425	-7.34
988.627	-9.16
988.829	-13.69
989.031	-12.29
989.232	-13.02
989.434	-12.77
989.636	-13.54
989.838	-13.12
990.04	-11.94
990.242	-12.89
990.443	-14.53
990.645	-13.36
990.847	-11.54
991.048	-12.34
991.25	-15.51
991.452	-16.48
991.653	-17.82
991.855	-16.31
992.057	-19.38
992.258	-18.49
992.46	-19.48
992.661	-18.08
992.863	-18.72
993.064	-18.56
993.265	-19.92
993.467	-22.09
993.668	-19.82
993.87	-20.72
994.071	-22.07
994.272	-21.9
994.473	-20.5
994.675	-19.34
994.876	-17.01
995.077	-16.08
995.278	-16.07
995.48	-16.5
995.681	-17.32
995.882	-15.7
996.083	-15.94
996.284	-20.5
996.485	-19.63
996.686	-19.87
996.887	-20.78
997.088	-23.53
997.289	-23.72
997.49	-22.9
997.691	-23.21
997.892	-23.65
998.092	-20.18
998.293	-19.21
998.494	-20.94
998.695	-19.97
998.896	-19.33
999.096	-19
999.297	-19.06
999.498	-19.99
999.698	-20.7
999.899	-22.81
1000.1	-23.69
1000.3	-22.6
1000.501	-22.88
1000.701	-23.12
1000.902	-24.09
1001.102	-25.12
1001.303	-23.35
1001.503	-24.64
1001.704	-23.31
1001.904	-25.23
1002.105	-25.26
1002.305	-25.33
1002.505	-25.58
1002.706	-25.94
1002.906	-26.12
1003.106	-25.38
1003.306	-24.62
1003.507	-24.28
1003.707	-25.12
1003.907	-23.43
1004.107	-21.16
1004.307	-22.83
1004.507	-21.47
1004.707	-21.75
1004.907	-23.46
1005.107	-23.9
1005.308	-24.36
1005.507	-24.47
1005.707	-22.93
1005.907	-23.16
1006.107	-20.73
1006.307	-18.95
1006.507	-21.13
1006.707	-20.26
1006.907	-18.71
1007.106	-18.68
1007.306	-20.15
1007.506	-20.23
1007.706	-20.09
1007.905	-22.19
1008.105	-21.81
1008.305	-23.71
1008.504	-22.24
1008.704	-18.44
1008.903	-17.96
1009.103	-15.73
1009.303	-18.22
1009.502	-17.71
1009.702	-17.82
1009.901	-17.44
1010.1	-19.58
1010.3	-18.13
1010.499	-19.6
1010.699	-21.66
1010.898	-23.21
1011.097	-22.59
1011.296	-22.38
1011.496	-24.09
1011.695	-24.6
1011.894	-25.69
1012.093	-22.71
1012.293	-22.26
1012.492	-21.84
1012.691	-21.07
1012.89	-20.62
1013.089	-23.36
1013.288	-23.59
1013.487	-22.1
1013.686	-21.92
1013.885	-23.36
1014.084	-21.98
1014.283	-21.72
1014.482	-21.72
1014.681	-22.21
1014.88	-24.59
1015.078	-24.15
1015.277	-26.79
1015.476	-26.17
1015.675	-26.34
1015.873	-25.67
1016.072	-26.5
1016.271	-23.3
1016.47	-26.6
1016.668	-24.68
1016.867	-24.97
1017.065	-25.11
1017.264	-25.84
1017.463	-24.92
1017.661	-24.15
1017.86	-23.89
1018.058	-22.33
1018.256	-23.61
1018.455	-24.55
1018.653	-24.2
1018.852	-23.73
1019.05	-25.64
1019.248	-27.09
1019.447	-27.94
1019.645	-27.9
1019.843	-29.32
1020.041	-26.61
1020.24	-27.31
1020.438	-23.38
1020.636	-23.54
1020.834	-26.48
1021.032	-24.62
1021.23	-25.57
1021.428	-23.39
1021.626	-20.53
1021.824	-18.99
1022.022	-20.2
1022.22	-18.11
1022.418	-19.14
1022.616	-20.26
1022.814	-21.71
1023.012	-20.97
1023.21	-19.7
1023.408	-19.46
1023.606	-20.53
1023.803	-16.48
1024.001	-16.56
1024.199	-19.5
1024.397	-17.5
1024.594	-17.91
1024.792	-21.22
1024.99	-19.84
1025.187	-20.23
1025.385	-16.04
1025.582	-15.38
1025.78	-17.26
1025.977	-16.94
1026.175	-17.83
1026.372	-16.71
1026.57	-19.72
1026.767	-16.97
1026.965	-15.77
1027.162	-15.67
1027.359	-16.21
1027.557	-16.13
1027.754	-19.27
1027.951	-22.33
1028.148	-20.86
1028.346	-22.18
1028.543	-22.62
1028.74	-22.39
1028.937	-23.3
1029.134	-23.61
1029.331	-23.94
1029.528	-24.89
1029.725	-26.01
1029.923	-29.13
1030.12	-26.17
1030.317	-25.08
1030.513	-24.67
1030.71	-24.32
1030.907	-20.95
1031.104	-22.32
1031.301	-22.78
1031.498	-23.45
1031.695	-23.57
1031.892	-21.96
1032.088	-21.04
1032.285	-22.17
1032.482	-23.56
1032.678	-25.54
1032.875	-27.55
1033.072	-27.44
1033.268	-28.26
1033.465	-28.12
1033.662	-30.11
1033.858	-28.07
1034.055	-27.14
1034.251	-25.5
1034.448	-26.86
1034.644	-28.29
1034.84	-25.12
1035.037	-23.51
1035.233	-22.74
1035.43	-21.07
1035.626	-20.87
1035.822	-18.51
1036.019	-19.18
1036.215	-22.47
1036.411	-22.13
1036.607	-24.45
1036.803	-27.05
1037	-28.29
1037.196	-30.11
1037.392	-30.66
1037.588	-32.18
1037.784	-32.04
1037.98	-32.68
1038.176	-34.19
1038.372	-34.53
1038.568	-32.64
1038.764	-31.9
1038.96	-29.38
1039.156	-29.62
1039.352	-30.46
1039.547	-29.3
1039.743	-28.34
1039.939	-28.03
1040.135	-27.93
1040.331	-28.39
1040.526	-25.5
1040.722	-25.28
1040.918	-26.22
1041.113	-28.71
1041.309	-29.84
1041.505	-33.33
1041.7	-33.37
1041.896	-33.84
1042.091	-33.25
1042.287	-31.96
1042.482	-31.67
1042.678	-31.29
1042.873	-29.03
1043.069	-29.35
1043.264	-27.56
1043.459	-25.63
1043.655	-24.32
1043.85	-24.23
1044.045	-23.19
1044.24	-21.98
1044.436	-19.9
1044.631	-21.02
1044.826	-20.14
1045.021	-24.21
1045.216	-23.57
