Data from FLMT021711__0__17-05-05-116.txt Node

Date: Tue Nov 05 17:05:05 CET 2024
User: Etudiants TP
Spectrometer: FLMT02171
Trigger mode: 0
Integration Time (sec): 1.000000E-1
Scans to average: 5
Electric dark correction enabled: true
Nonlinearity correction enabled: false
Boxcar width: 15
XAxis mode: Wavelengths
Number of Pixels in Spectrum: 3648
>>>>>Begin Spectral Data<<<<<
194.658	-57.12
194.923	-53.37
195.188	-46.71
195.453	-46.67
195.717	-41.94
195.982	-40.16
196.247	-39.1
196.512	-41.72
196.777	-39.63
197.042	-36.8
197.307	-36
197.572	-32.94
197.837	-33.29
198.101	-30.05
198.366	-28.31
198.631	-26.31
198.896	-20.61
199.161	-14.67
199.425	-8.18
199.69	0.88
199.955	0.77
200.22	-1.22
200.484	-0.24
200.749	0.3
201.014	1.63
201.278	1.31
201.543	3.22
201.807	2.09
202.072	2.78
202.337	2.61
202.601	2.84
202.866	0.67
203.13	0.96
203.395	-1.57
203.659	-0.5
203.924	-1.83
204.189	-1.91
204.453	-0.91
204.717	1.25
204.982	2.16
205.246	1.99
205.511	1.63
205.775	1.49
206.04	6.75
206.304	5.92
206.568	6.93
206.833	6.95
207.097	6.62
207.361	8.28
207.626	11.71
207.89	11.52
208.154	12.33
208.419	14.44
208.683	12.82
208.947	15.36
209.211	15.63
209.476	15.08
209.74	14.51
210.004	15.07
210.268	15.25
210.532	18.47
210.796	19.14
211.061	19.14
211.325	19.31
211.589	19.15
211.853	19.15
212.117	19.65
212.381	19.63
212.645	19.83
212.909	20.68
213.173	17.18
213.437	17.57
213.701	19.88
213.965	20.32
214.229	15.35
214.493	15.74
214.757	15
215.021	14.64
215.285	18.98
215.549	21.21
215.813	18.17
216.077	17.43
216.34	18.73
216.604	16.09
216.868	17.63
217.132	16.88
217.396	16.44
217.659	17.32
217.923	14.59
218.187	15
218.451	15.57
218.714	12.93
218.978	12.06
219.242	14.41
219.505	15.22
219.769	15.53
220.033	16.45
220.296	16.79
220.56	18.03
220.824	16.3
221.087	17.07
221.351	18.25
221.614	18.92
221.878	19.67
222.142	19.63
222.405	21
222.669	21.53
222.932	19.14
223.196	17.12
223.459	13.61
223.722	13.17
223.986	12.48
224.249	10.92
224.513	10.24
224.776	12.01
225.04	12.33
225.303	12.72
225.566	11.84
225.83	13.87
226.093	16.64
226.356	14.2
226.62	12.68
226.883	14.76
227.146	15.1
227.409	14.18
227.673	11.67
227.936	11.13
228.199	10.77
228.462	9.73
228.725	8.02
228.989	8.88
229.252	9.39
229.515	13.46
229.778	10.57
230.041	9.3
230.304	6.21
230.567	6.82
230.83	5.24
231.093	7.52
231.356	7.86
231.619	14.68
231.882	14.45
232.145	15.82
232.408	16.1
232.671	16.27
232.934	14.93
233.197	13.15
233.46	12.34
233.723	13.72
233.986	11.26
234.249	9.75
234.512	11.8
234.775	14.47
235.037	13.05
235.3	13.84
235.563	13.63
235.826	14.55
236.089	17.14
236.351	16.69
236.614	18.45
236.877	19.46
237.14	20.52
237.402	20.33
237.665	15.68
237.928	15.8
238.19	14.22
238.453	17.59
238.716	15.84
238.978	16.48
239.241	14.99
239.503	16.8
239.766	11.12
240.029	9.76
240.291	12.76
240.554	12.19
240.816	11.31
241.079	12.56
241.341	11.36
241.604	9.75
241.866	7.67
242.129	9.62
242.391	11.28
242.653	10.69
242.916	9.69
243.178	10.09
243.441	10.36
243.703	9.36
243.965	7.47
244.228	6.19
244.49	6.75
244.752	6.58
245.015	6.31
245.277	7.7
245.539	6.36
245.801	6.7
246.064	7.21
246.326	6.8
246.588	4.78
246.85	7.31
247.112	8.6
247.374	10.95
247.637	12.72
247.899	13.03
248.161	12.91
248.423	8.9
248.685	10.62
248.947	9.69
249.209	9.24
249.471	11.58
249.733	12.44
249.995	10.89
250.257	10.05
250.519	9.37
250.781	11.44
251.043	8.26
251.305	9.16
251.567	11.45
251.829	12.49
252.091	13.43
252.353	10.21
252.615	10.44
252.876	9.33
253.138	9.26
253.4	6.49
253.662	6.72
253.924	9.11
254.185	10.21
254.447	9.85
254.709	11.06
254.971	10.68
255.232	12.05
255.494	11.14
255.756	9.68
256.017	9.32
256.279	10.63
256.541	10.86
256.802	8.89
257.064	9.55
257.326	8.43
257.587	8.78
257.849	9.97
258.11	13.02
258.372	13.99
258.633	14.55
258.895	13.6
259.156	15.46
259.418	14.67
259.679	9.48
259.941	6.73
260.202	8.97
260.464	12.84
260.725	12.27
260.987	11.34
261.248	10.58
261.509	10.86
261.771	11.07
262.032	11.28
262.293	9.77
262.555	10.18
262.816	8.28
263.077	8.29
263.338	4.98
263.6	4.94
263.861	4
264.122	3.9
264.383	4.04
264.645	4.38
264.906	5.54
265.167	6.35
265.428	6.47
265.689	7.17
265.95	5.7
266.211	5.55
266.473	5.11
266.734	2.16
266.995	-0.43
267.256	-0.78
267.517	1.07
267.778	5.38
268.039	7.74
268.3	5.98
268.561	2.68
268.822	4.54
269.083	2.78
269.344	1.82
269.604	1.46
269.865	2.61
270.126	1.11
270.387	3.13
270.648	3.86
270.909	3.17
271.17	0.64
271.43	-2.63
271.691	-6.28
271.952	-7.1
272.213	-4.93
272.473	-7.14
272.734	-4.29
272.995	-4.22
273.256	-3.92
273.516	-1.43
273.777	-3.97
274.038	-2.97
274.298	-4.29
274.559	-4.81
274.82	-1.35
275.08	1.63
275.341	3.57
275.601	1.89
275.862	0.17
276.122	-0.64
276.383	-0.54
276.643	2.69
276.904	2.26
277.164	5.01
277.425	5.12
277.685	8.87
277.946	7.78
278.206	8.57
278.467	9.57
278.727	9.74
278.987	9.72
279.248	9.2
279.508	12.72
279.768	15.75
280.029	17.18
280.289	13.03
280.549	12.3
280.81	10.1
281.07	9.99
281.33	11.58
281.59	10.17
281.851	12.65
282.111	12.43
282.371	11.3
282.631	12.15
282.891	11.01
283.151	8.34
283.412	6.54
283.672	5.69
283.932	5.64
284.192	7.65
284.452	5.8
284.712	4.49
284.972	3.58
285.232	3.52
285.492	6.01
285.752	3.28
286.012	8.78
286.272	9.4
286.532	7.69
286.792	7.84
287.052	9.36
287.312	10.09
287.571	8.88
287.831	9.45
288.091	6.06
288.351	8.21
288.611	11.9
288.871	12.31
289.13	11.45
289.39	8.8
289.65	9.28
289.91	6.83
290.17	8.64
290.429	11.38
290.689	9.88
290.949	7.96
291.208	9.71
291.468	12.64
291.728	14.49
291.987	15.61
292.247	13.91
292.506	16.98
292.766	17.47
293.026	15.45
293.285	15.2
293.545	17.01
293.804	17.65
294.064	14.45
294.323	13.04
294.583	13.62
294.842	14.41
295.102	15.16
295.361	16.09
295.621	16.54
295.88	16.4
296.139	16.49
296.399	17.32
296.658	13.08
296.917	12.53
297.177	10.2
297.436	11.17
297.695	10
297.955	11.35
298.214	10.57
298.473	11.31
298.732	13.42
298.992	16.28
299.251	15.63
299.51	11.65
299.769	11.98
300.028	11.78
300.287	12.26
300.547	13.38
300.806	12.61
301.065	15.43
301.324	17.29
301.583	13.6
301.842	10.29
302.101	8.31
302.36	8.87
302.619	7.83
302.878	8.56
303.137	6.8
303.396	8.39
303.655	9.83
303.914	7.41
304.173	8.05
304.432	6.96
304.691	10.33
304.95	8.3
305.208	13.03
305.467	12.94
305.726	12.59
305.985	13.96
306.244	13.6
306.503	13.24
306.761	11.38
307.02	7.95
307.279	8.47
307.537	9.59
307.796	6.82
308.055	3.96
308.314	6.24
308.572	3.35
308.831	4.06
309.09	3.35
309.348	3.01
309.607	3.6
309.865	7.28
310.124	6.54
310.382	7.81
310.641	9.46
310.9	6.68
311.158	7.48
311.417	6.68
311.675	6.09
311.933	6.29
312.192	8.16
312.45	7.26
312.709	6.35
312.967	7.3
313.226	6.85
313.484	7.42
313.742	7.34
314.001	5.23
314.259	4.56
314.517	4.83
314.776	6.38
315.034	8.57
315.292	6.87
315.55	5.36
315.809	5.5
316.067	6.67
316.325	5.13
316.583	6.41
316.841	5.33
317.1	4.4
317.358	2.48
317.616	1.1
317.874	-0.34
318.132	-0.68
318.39	-1.14
318.648	-3.74
318.906	-2.54
319.164	-2.93
319.422	-3.51
319.68	-5.03
319.938	-3.11
320.196	-2.47
320.454	0.25
320.712	-0.74
320.97	-1.63
321.228	-2.83
321.486	-3.06
321.744	-2.66
322.002	-0.27
322.26	-2.32
322.517	-2.41
322.775	-5.6
323.033	-7.33
323.291	-4.75
323.549	-2.89
323.806	-1.98
324.064	-2.08
324.322	-2.11
324.58	-3.28
324.837	-1.63
325.095	-2.74
325.353	-2.22
325.61	0.77
325.868	0.59
326.126	1.47
326.383	-0.07
326.641	1.36
326.898	2.1
327.156	1.57
327.413	3.13
327.671	4.14
327.928	4.78
328.186	5.32
328.443	3.09
328.701	7.5
328.958	9.94
329.216	9.37
329.473	8.61
329.731	9.09
329.988	8.27
330.245	10.6
330.503	12.1
330.76	14.48
331.017	17.13
331.275	15.32
331.532	14.21
331.789	12.83
332.047	12.01
332.304	9.66
332.561	10.23
332.818	8.29
333.076	9.56
333.333	9.12
333.59	8.66
333.847	9.74
334.104	9.81
334.361	9.52
334.618	8.07
334.876	6.1
335.133	5.47
335.39	2.68
335.647	3.47
335.904	0.56
336.161	-1.9
336.418	-1.39
336.675	-5.9
336.932	-5.57
337.189	-6.29
337.446	-5.41
337.703	-6.09
337.96	-9.21
338.216	-8.99
338.473	-12.16
338.73	-12.64
338.987	-13.69
339.244	-11.3
339.501	-12.65
339.757	-10.83
340.014	-8.35
340.271	-7.2
340.528	-6.2
340.785	-3.22
341.041	-2.42
341.298	-3.98
341.555	-4.28
341.811	-4.81
342.068	-7.11
342.325	-6.96
342.581	-5.21
342.838	-4.31
343.094	-2.73
343.351	-2.63
343.608	-4.98
343.864	-2.76
344.121	-1.87
344.377	-1.96
344.634	-1.93
344.89	-2.76
345.147	-2.68
345.403	-3.97
345.66	-4.49
345.916	-2.24
346.172	-4.47
346.429	-6.32
346.685	-7.7
346.942	-6.43
347.198	-10.57
347.454	-8.7
347.711	-9.23
347.967	-11.8
348.223	-10.85
348.48	-10.99
348.736	-7.83
348.992	-8.99
349.248	-6.39
349.504	-6.85
349.761	-6.55
350.017	-6.08
350.273	-6
350.529	-7.21
350.785	-6.56
351.041	-7.03
351.297	-6.55
351.554	-6.42
351.81	-8.69
352.066	-9.45
352.322	-9.3
352.578	-7.89
352.834	-9.08
353.09	-8
353.346	-7.04
353.602	-8.07
353.858	-8.56
354.114	-8.73
354.369	-6.12
354.625	-3.93
354.881	-5.82
355.137	-4.13
355.393	-3.48
355.649	-3.28
355.905	-3.66
356.16	-4.53
356.416	-5.24
356.672	-11.4
356.928	-11.14
357.183	-11.64
357.439	-10.94
357.695	-12.4
357.951	-7.64
358.206	-7.3
358.462	-7.32
358.718	-8.34
358.973	-7.62
359.229	-6.55
359.484	-6.03
359.74	-1.89
359.996	-1.79
360.251	0.33
360.507	-1.01
360.762	-0.34
361.018	-0.3
361.273	-2.26
361.529	-0.97
361.784	-1.28
362.04	0.48
362.295	-0.57
362.55	-0.68
362.806	1.11
363.061	2.17
363.316	1.11
363.572	1.79
363.827	4.25
364.082	2.95
364.338	3.3
364.593	3.89
364.848	4.8
365.104	3.87
365.359	6.72
365.614	5.73
365.869	2.74
366.124	2.94
366.38	1.94
366.635	3.47
366.89	4.24
367.145	3.03
367.4	4.81
367.655	3.88
367.91	3.66
368.165	1.39
368.42	-0.1
368.675	-0.59
368.93	1.51
369.185	0.68
369.44	0.97
369.695	2.77
369.95	2.37
370.205	1.97
370.46	2
370.715	2.03
370.97	2.24
371.225	2.48
371.48	4.7
371.734	5.68
371.989	5.87
372.244	4.94
372.499	6.62
372.754	5.72
373.008	3.1
373.263	-1.59
373.518	2.56
373.773	1.47
374.027	0.13
374.282	2.83
374.537	2.27
374.791	3.27
375.046	3.21
375.301	2.43
375.555	0.88
375.81	2.99
376.064	4.21
376.319	6.49
376.573	6.9
376.828	2.78
377.082	5.7
377.337	5.61
377.591	3.73
377.846	3.45
378.1	5.94
378.355	6.07
378.609	5.44
378.863	2.88
379.118	3.94
379.372	2.13
379.627	-0.36
379.881	0.34
380.135	1.34
380.389	1.68
380.644	3.05
380.898	4.86
381.152	6.48
381.407	4.68
381.661	6.8
381.915	9.07
382.169	8.69
382.423	7.69
382.677	4.82
382.932	5.61
383.186	6.49
383.44	7.21
383.694	8
383.948	6.89
384.202	6.24
384.456	6.65
384.71	8.29
384.964	6.82
385.218	6.35
385.472	7.96
385.726	8.09
385.98	7.97
386.234	7.56
386.488	5.94
386.742	8.1
386.996	6.2
387.249	6.75
387.503	8.79
387.757	8.8
388.011	8.93
388.265	8.39
388.518	8.66
388.772	10.95
389.026	11.5
389.28	10.19
389.533	7.91
389.787	8.77
390.041	6.82
390.295	7.56
390.548	8
390.802	10.67
391.055	9.88
391.309	9.19
391.563	6.45
391.816	6.7
392.07	6.09
392.323	8.25
392.577	9.8
392.83	11.58
393.084	17.16
393.337	18.55
393.591	19.78
393.844	19.49
394.098	22.13
394.351	25.08
394.604	26.96
394.858	28.79
395.111	27.59
395.364	25.48
395.618	28.53
395.871	26.35
396.124	25.98
396.378	25.5
396.631	24.95
396.884	23.05
397.137	22.93
397.391	25.13
397.644	22.6
397.897	23.86
398.15	25.61
398.403	28.49
398.657	27.36
398.91	26.5
399.163	26.68
399.416	27.4
399.669	27.13
399.922	26.37
400.175	23.65
400.428	22.21
400.681	22.26
400.934	17.75
401.187	16.44
401.44	16.47
401.693	15.52
401.946	11.92
402.199	7.51
402.452	5.64
402.704	4.17
402.957	3.84
403.21	6.28
403.463	3.91
403.716	5.01
403.969	6.36
404.221	5.44
404.474	7.38
404.727	10.81
404.98	13.48
405.232	13.35
405.485	14.27
405.738	16.99
405.99	15.78
406.243	14.31
406.496	15.28
406.748	15.7
407.001	15.61
407.253	15.99
407.506	17
407.759	17.56
408.011	15.35
408.264	15.94
408.516	16.45
408.769	14.91
409.021	16.05
409.274	16.35
409.526	18.93
409.778	19.29
410.031	22.62
410.283	23.08
410.536	26.37
410.788	25.25
411.04	23.66
411.293	25.27
411.545	26.46
411.797	25.82
412.049	25.85
412.302	26.19
412.554	26.42
412.806	24.14
413.058	22.89
413.311	23.94
413.563	22.08
413.815	22.29
414.067	21.59
414.319	21.55
414.571	22.4
414.823	21.42
415.075	21.64
415.328	21.65
415.58	26.36
415.832	29.92
416.084	32.2
416.336	31.06
416.588	35.81
416.84	34.38
417.091	37.64
417.343	34.47
417.595	36.06
417.847	38.1
418.099	40.36
418.351	40.29
418.603	44.06
418.855	46.96
419.106	48.92
419.358	50.86
419.61	51
419.862	54.02
420.114	53.38
420.365	53.78
420.617	56.75
420.869	56.84
421.12	58.03
421.372	59.35
421.624	60.42
421.875	63.28
422.127	61.96
422.379	64.46
422.63	67.91
422.882	69.29
423.133	71.12
423.385	72.06
423.636	74.2
423.888	76.8
424.139	80.81
424.391	80.58
424.642	81.9
424.894	80.41
425.145	83.78
425.396	85.84
425.648	89.64
425.899	90.3
426.151	93.83
426.402	96.46
426.653	99.07
426.905	98.68
427.156	98.95
427.407	101.53
427.658	103.52
427.91	106.27
428.161	108.56
428.412	112.4
428.663	116.28
428.914	120.24
429.166	125.23
429.417	128.96
429.668	130.33
429.919	131.56
430.17	133.32
430.421	138.14
430.672	144.74
430.923	148.74
431.174	151.02
431.425	155
431.676	159.03
431.927	160.02
432.178	165.11
432.429	170.79
432.68	176.66
432.931	183.7
433.182	189.94
433.433	191.83
433.683	197.85
433.934	201.37
434.185	204.09
434.436	207.32
434.687	214.29
434.937	221.3
435.188	225.92
435.439	229.25
435.69	234.56
435.94	239.32
436.191	245.85
436.442	251.6
436.692	255.99
436.943	258.84
437.194	263.35
437.444	271.55
437.695	282.44
437.945	290.25
438.196	294.97
438.447	299.3
438.697	304.89
438.948	311.34
439.198	314.82
439.449	317.68
439.699	326.47
439.949	333.99
440.2	340.36
440.45	350.23
440.701	355.81
440.951	361.49
441.201	368.17
441.452	374.62
441.702	382.28
441.952	391.29
442.203	400.24
442.453	406.46
442.703	416.17
442.953	424.63
443.204	435.9
443.454	443.15
443.704	452.1
443.954	456.76
444.204	468.68
444.455	478.12
444.705	489.68
444.955	500.08
445.205	509.12
445.455	516.77
445.705	526.7
445.955	537.14
446.205	548.37
446.455	560.67
446.705	571.45
446.955	583.68
447.205	596.1
447.455	606.76
447.705	612.39
447.955	622.07
448.205	629.9
448.454	639.9
448.704	652.23
448.954	661.39
449.204	671.28
449.454	681.12
449.704	689.03
449.953	698.3
450.203	709.11
450.453	714.85
450.703	725.63
450.952	731.09
451.202	739.72
451.452	747.56
451.701	756.71
451.951	763.51
452.201	770.13
452.45	777.06
452.7	783.57
452.949	789.34
453.199	794.46
453.448	799.81
453.698	804.51
453.947	804.83
454.197	804.53
454.446	805.07
454.696	809.08
454.945	809.56
455.195	808.28
455.444	810.04
455.693	812.39
455.943	808.7
456.192	807.91
456.442	804.83
456.691	802.64
456.94	797.73
457.189	792.56
457.439	789.87
457.688	785.36
457.937	779.56
458.186	773.37
458.436	766.32
458.685	761.18
458.934	754.79
459.183	746.95
459.432	742.89
459.681	737
459.93	728.46
460.179	717.7
460.429	707.38
460.678	700.67
460.927	694.82
461.176	683.91
461.425	673.1
461.674	667.61
461.923	660.94
462.172	653.67
462.42	644.37
462.669	637.3
462.918	629.38
463.167	621.85
463.416	611.28
463.665	605.61
463.914	597.63
464.162	589.75
464.411	583.75
464.66	579.23
464.909	571.27
465.158	563.36
465.406	555.42
465.655	549.47
465.904	547.18
466.152	542.52
466.401	537.48
466.65	531.88
466.898	525.63
467.147	516.6
467.395	509.6
467.644	507.68
467.893	502.24
468.141	497.82
468.39	490.35
468.638	481.64
468.887	477.26
469.135	474.6
469.384	469.61
469.632	464.92
469.88	459.09
470.129	455.1
470.377	448.58
470.626	446.73
470.874	443.86
471.122	441.38
471.371	435.87
471.619	430.83
471.867	428.27
472.115	424.32
472.364	418.53
472.612	416.76
472.86	413.53
473.108	410.98
473.356	409.32
473.605	403.77
473.853	398.06
474.101	394.18
474.349	390.72
474.597	390.34
474.845	387.37
475.093	382.98
475.341	378.38
475.589	377.21
475.837	375.95
476.085	375.79
476.333	372.18
476.581	370.25
476.829	367.51
477.077	366.92
477.325	364.65
477.573	364.08
477.821	360.82
478.069	359.49
478.317	357.8
478.564	358.45
478.812	355.43
479.06	353.23
479.308	351.99
479.555	350.58
479.803	349.14
480.051	350.29
480.299	348.48
480.546	348.14
480.794	345.3
481.042	345.09
481.289	344.87
481.537	346.12
481.784	344.88
482.032	347.35
482.28	345.38
482.527	344.21
482.775	345.01
483.022	346.21
483.27	347.56
483.517	349.82
483.765	348.74
484.012	350.52
484.259	349.4
484.507	351.31
484.754	353.36
485.002	355.04
485.249	355.36
485.496	358.19
485.744	359.36
485.991	360.25
486.238	359.85
486.486	363.8
486.733	365.89
486.98	369.96
487.227	369.89
487.474	372.7
487.722	376.48
487.969	377.95
488.216	380.47
488.463	382.16
488.71	380.93
488.957	380.51
489.204	381.74
489.451	385.78
489.699	387.21
489.946	388.02
490.193	390.17
490.44	392.91
490.687	394.21
490.934	393.75
491.18	393.08
491.427	396.3
491.674	400.58
491.921	404.03
492.168	404.61
492.415	404.07
492.662	407.79
492.909	411.5
493.155	413.69
493.402	416.72
493.649	416.59
493.896	419.87
494.142	418.44
494.389	420.49
494.636	421.49
494.883	422.1
495.129	422.57
495.376	422.8
495.623	425.76
495.869	429.58
496.116	434.87
496.362	439.86
496.609	446.13
496.855	453.23
497.102	454.27
497.348	456.19
497.595	460.41
497.841	465.47
498.088	466.15
498.334	468.76
498.581	470.09
498.827	473.11
499.074	476.26
499.32	480.78
499.566	485.5
499.813	489.59
500.059	490.65
500.305	491.22
500.552	493.19
500.798	494.89
501.044	499.76
501.29	502.6
501.537	501.81
501.783	506.32
502.029	511.69
502.275	511.1
502.521	512.43
502.767	515.67
503.013	520.11
503.26	521.14
503.506	520.1
503.752	523.04
503.998	523.56
504.244	526.81
504.49	525.45
504.736	529.95
504.982	532.03
505.228	536.34
505.474	538.54
505.72	541.64
505.966	543.09
506.211	548.98
506.457	551.74
506.703	552.03
506.949	551.53
507.195	553.21
507.441	552.97
507.686	557.54
507.932	560.58
508.178	563.02
508.424	563.77
508.669	563.48
508.915	566.02
509.161	569.62
509.406	571.58
509.652	573.38
509.898	578.04
510.143	582.31
510.389	583.96
510.634	582.86
510.88	588.4
511.125	592.45
511.371	596.02
511.616	598.61
511.862	595.85
512.107	596.63
512.353	598.15
512.598	599.52
512.844	598.18
513.089	598.02
513.335	600.78
513.58	601.19
513.825	602.3
514.071	601.94
514.316	603.47
514.561	605.49
514.806	604.89
515.052	607.56
515.297	605.84
515.542	607.18
515.787	609.08
516.033	610.43
516.278	611.4
516.523	612.34
516.768	615.06
517.013	615.88
517.258	616.25
517.503	617.67
517.748	619.17
517.993	619
518.238	619.88
518.483	618.42
518.728	617.09
518.973	614.48
519.218	615.27
519.463	618.81
519.708	618.46
519.953	619.23
520.198	620.16
520.443	622.91
520.688	625.99
520.933	625.78
521.177	627.8
521.422	626.88
521.667	632.44
521.912	632.34
522.157	630.79
522.401	634.96
522.646	636.24
522.891	640.11
523.135	640.8
523.38	641.71
523.625	642.87
523.869	646.48
524.114	648.02
524.358	645.79
524.603	646.05
524.848	645.57
525.092	643.42
525.337	644.19
525.581	647.12
525.826	650.09
526.07	651.67
526.315	654.86
526.559	655.55
526.803	652.98
527.048	656.43
527.292	657.35
527.537	656.81
527.781	657.08
528.025	655.68
528.269	657
528.514	658.63
528.758	657.29
529.002	657.14
529.247	659.33
529.491	660.38
529.735	664.97
529.979	665.69
530.223	666.66
530.467	664.41
530.712	663.09
530.956	661.74
531.2	663.76
531.444	661.76
531.688	663.83
531.932	665.41
532.176	666.57
532.42	666.99
532.664	669.28
532.908	669.31
533.152	667.17
533.396	666.73
533.64	665.66
533.884	664.16
534.128	664.07
534.371	666.66
534.615	667.98
534.859	667.1
535.103	667.05
535.347	667.82
535.59	670.27
535.834	667.69
536.078	667.82
536.322	669.96
536.565	673.9
536.809	669.8
537.053	669.68
537.296	668.18
537.54	665.97
537.784	665.54
538.027	667.14
538.271	666.32
538.514	664.81
538.758	664.34
539.001	661.9
539.245	661.07
539.488	660.52
539.732	660.79
539.975	661.33
540.219	662.75
540.462	663.25
540.706	665.12
540.949	663.81
541.192	665.23
541.436	669.47
541.679	673.5
541.922	673.87
542.166	669.37
542.409	670.87
542.652	671.01
542.895	671.46
543.139	670.65
543.382	673.29
543.625	672.13
543.868	671.54
544.111	669.44
544.354	669.14
544.598	667.52
544.841	668.79
545.084	668.65
545.327	667.15
545.57	666.49
545.813	668.28
546.056	669.12
546.299	667.3
546.542	669.44
546.785	671.14
547.028	672.64
547.271	670.42
547.514	669.16
547.756	668.56
547.999	667.65
548.242	667.58
548.485	666.03
548.728	664.56
548.971	660.2
549.213	659.43
549.456	658.48
549.699	657.29
549.942	656.99
550.184	656.58
550.427	655.16
550.67	654.18
550.912	650.45
551.155	650.45
551.398	649.51
551.64	649.97
551.883	651.03
552.125	650.88
552.368	647.36
552.61	645.4
552.853	645.65
553.095	644.46
553.338	643.84
553.58	643.72
553.823	643.9
554.065	645.38
554.308	641.14
554.55	637.66
554.792	635.49
555.035	634.79
555.277	631.93
555.519	632.88
555.762	631.01
556.004	630.64
556.246	627.67
556.488	627.38
556.731	624.06
556.973	624.42
557.215	623.86
557.457	624.77
557.699	625.83
557.941	622.75
558.183	623.65
558.426	626.13
558.668	623.28
558.91	623.3
559.152	622.58
559.394	620.5
559.636	621.29
559.878	624.2
560.12	622.99
560.362	622.77
560.604	623.63
560.845	622.62
561.087	620.61
561.329	622.58
561.571	618.69
561.813	618.57
562.055	616.66
562.297	618.58
562.538	617.84
562.78	620.18
563.022	617.75
563.264	619.17
563.505	621.17
563.747	622.34
563.989	620.85
564.23	621.96
564.472	620.91
564.714	623.67
564.955	624.11
565.197	621.44
565.438	622.81
565.68	625.08
565.921	624.1
566.163	625.87
566.404	625.24
566.646	626.28
566.887	629.31
567.129	630.83
567.37	628.75
567.612	631.18
567.853	629.48
568.094	629.65
568.336	629.7
568.577	632.21
568.818	632.26
569.06	631.88
569.301	629.9
569.542	632.63
569.783	634.25
570.025	636.01
570.266	635.75
570.507	636.51
570.748	636.43
570.989	636.84
571.23	638.93
571.472	639.11
571.713	637.22
571.954	636.74
572.195	635.34
572.436	636.52
572.677	638.02
572.918	640.29
573.159	636.37
573.4	633.51
573.641	631.46
573.882	631.58
574.123	627.83
574.364	623.09
574.604	622.9
574.845	619.9
575.086	618.34
575.327	618.76
575.568	617.4
575.809	615.86
576.049	613.45
576.29	609.8
576.531	612.49
576.771	615.58
577.012	614.66
577.253	613.35
577.494	609.06
577.734	608.8
577.975	607.05
578.215	605.28
578.456	601.53
578.697	599.5
578.937	599.48
579.178	596.83
579.418	594.52
579.659	590.74
579.899	585.19
580.14	581.36
580.38	579.07
580.62	577.82
580.861	579.83
581.101	579.58
581.342	578.4
581.582	573.75
581.822	573.86
582.063	570.56
582.303	570.72
582.543	570.04
582.783	569.88
583.024	570.56
583.264	572.45
583.504	568.05
583.744	566.99
583.984	563.26
584.224	561.18
584.465	559.91
584.705	558.68
584.945	560.49
585.185	558.1
585.425	558.96
585.665	557.14
585.905	555.73
586.145	554.31
586.385	551.88
586.625	552.01
586.865	551.56
587.105	551.9
587.345	551.88
587.585	551.91
587.824	549.65
588.064	549.06
588.304	545.44
588.544	544.8
588.784	541.68
589.024	544.12
589.263	541.5
589.503	539.18
589.743	540.62
589.982	539.05
590.222	539.05
590.462	535.55
590.701	531.11
590.941	534.26
591.181	533.76
591.42	532.8
591.66	533.96
591.899	534.99
592.139	532.53
592.378	531.91
592.618	530.78
592.857	528.21
593.097	528.1
593.336	526.78
593.576	526.05
593.815	526.53
594.055	526.66
594.294	526.24
594.533	524.18
594.773	523.64
595.012	524.93
595.251	524.45
595.491	527.07
595.73	528.9
595.969	528.83
596.208	529.16
596.447	533.18
596.687	534.71
596.926	535.72
597.165	532.63
597.404	534.06
597.643	532.6
597.882	531.39
598.121	532.77
598.36	533.8
598.599	534.77
598.838	535.34
599.077	533
599.316	531.78
599.555	531.45
599.794	531.77
600.033	532.21
600.272	532.16
600.511	530.19
600.75	530.72
600.989	531.85
601.228	532.26
601.466	531.24
601.705	531.48
601.944	532.2
602.183	532
602.422	530.08
602.66	529.35
602.899	526.07
603.138	525.75
603.376	524.28
603.615	524.06
603.854	519.81
604.092	519.02
604.331	519.23
604.569	518.15
604.808	514.42
605.047	512.2
605.285	510.75
605.524	508.64
605.762	504.32
606	503.4
606.239	501.53
606.477	498.34
606.716	493.89
606.954	493.02
607.193	487.34
607.431	481.73
607.669	478.73
607.908	476.54
608.146	477.46
608.384	473.73
608.622	469.25
608.861	466.49
609.099	462.45
609.337	458.47
609.575	456.34
609.813	455.39
610.052	453.35
610.29	446.93
610.528	441.71
610.766	439.3
611.004	436.35
611.242	432.5
611.48	428.13
611.718	422.76
611.956	421.32
612.194	419.33
612.432	417.38
612.67	414.02
612.908	412.98
613.146	409.45
613.384	404.84
613.621	401.18
613.859	401.05
614.097	400.46
614.335	397.85
614.573	397.48
614.811	397.75
615.048	395.73
615.286	393.78
615.524	388.47
615.761	384.36
615.999	382.45
616.237	380.33
616.474	381.34
616.712	382.16
616.95	378.66
617.187	375.57
617.425	374.44
617.662	375.17
617.9	373.09
618.137	368.61
618.375	365.37
618.612	362.04
618.85	363.06
619.087	364.26
619.325	361.55
619.562	357.7
619.799	354.9
620.037	352.95
620.274	350.69
620.511	351.93
620.749	349.46
620.986	347.16
621.223	341.96
621.461	339.51
621.698	339.08
621.935	337.81
622.172	334.7
622.409	335.56
622.647	333.87
622.884	331.24
623.121	332.36
623.358	330.19
623.595	327.78
623.832	327.18
624.069	323.66
624.306	323.02
624.543	322.97
624.78	320.51
625.017	318.84
625.254	319.33
625.491	320.31
625.728	321.03
625.965	321.91
626.202	319.06
626.438	316.83
626.675	315.33
626.912	316.55
627.149	314.84
627.386	314.82
627.622	312.92
627.859	310.01
628.096	308.61
628.333	307.65
628.569	308.04
628.806	307.98
629.043	306.21
629.279	305.84
629.516	306.12
629.752	301.71
629.989	300.87
630.225	298.92
630.462	297.46
630.699	296.66
630.935	296.77
631.171	291.82
631.408	290.35
631.644	287.62
631.881	282.7
632.117	280.07
632.354	278.4
632.59	277.03
632.826	275.76
633.063	275.4
633.299	273.93
633.535	270.95
633.771	266.9
634.008	267.58
634.244	266.33
634.48	265.58
634.716	266.41
634.953	263.94
635.189	263.57
635.425	264.19
635.661	265.96
635.897	264.57
636.133	263.8
636.369	259.58
636.605	254.73
636.841	253.07
637.077	251.72
637.313	249.66
637.549	248.5
637.785	245.19
638.021	244.04
638.257	241.32
638.493	242.8
638.729	239.78
638.965	240.48
639.2	241.96
639.436	241.07
639.672	240.17
639.908	236.51
640.144	238.11
640.379	237.62
640.615	234.73
640.851	235.33
641.086	236.55
641.322	234.32
641.558	231.2
641.793	230
642.029	226.34
642.264	224.96
642.5	222.73
642.736	218.59
642.971	217.79
643.207	214.03
643.442	209.16
643.678	210.34
643.913	210.88
644.148	208.48
644.384	210.86
644.619	210.83
644.855	211.83
645.09	211.52
645.325	210.06
645.561	208.87
645.796	205.6
646.031	208.61
646.266	205.52
646.502	202.82
646.737	204.66
646.972	204.3
647.207	204.05
647.442	201
647.678	197.25
647.913	199.28
648.148	198.04
648.383	194.82
648.618	192.66
648.853	192
649.088	193.42
649.323	195.08
649.558	194.51
649.793	194.33
650.028	194.33
650.263	189.47
650.498	189.24
650.733	189.84
650.968	188.03
651.202	188.18
651.437	186.8
651.672	182.45
651.907	180.84
652.142	180.01
652.376	179.27
652.611	180.58
652.846	181.83
653.081	180.58
653.315	177.31
653.55	177.37
653.785	175.97
654.019	175.33
654.254	171.43
654.488	170.1
654.723	165.82
654.958	162.91
655.192	160.46
655.427	157.18
655.661	158.9
655.896	162.01
656.13	163.8
656.364	160.1
656.599	155.51
656.833	156.46
657.068	156.22
657.302	155.89
657.536	154.72
657.771	155.92
658.005	155.65
658.239	155.74
658.474	152.12
658.708	151.75
658.942	149.92
659.176	147.64
659.41	143.93
659.645	142.73
659.879	141.47
660.113	136.37
660.347	134.82
660.581	132.51
660.815	130.92
661.049	129.17
661.283	124.6
661.517	122.92
661.751	121.42
661.985	121.56
662.219	122.18
662.453	119.33
662.687	120.5
662.921	116.67
663.155	112.79
663.389	106.78
663.622	104.9
663.856	104.96
664.09	102.01
664.324	100.61
664.558	98.65
664.791	95.99
665.025	94.39
665.259	92.35
665.492	90.23
665.726	93.21
665.96	92.93
666.193	91.2
666.427	91.86
666.661	91.97
666.894	88.44
667.128	85.34
667.361	87.47
667.595	86.34
667.828	86.19
668.062	85.05
668.295	86.46
668.529	87.41
668.762	87.91
668.995	86.89
669.229	88.23
669.462	88.02
669.695	88.09
669.929	84.65
670.162	84.94
670.395	83.49
670.629	84.35
670.862	86.02
671.095	83.14
671.328	82.25
671.561	79.8
671.795	80.16
672.028	82.86
672.261	82.82
672.494	83.54
672.727	81.46
672.96	81.13
673.193	80.33
673.426	83.8
673.659	82.93
673.892	83.08
674.125	84.43
674.358	84.49
674.591	82.57
674.824	80.51
675.057	78.5
675.29	76.97
675.523	76.09
675.755	73.89
675.988	73.75
676.221	76.34
676.454	75.14
676.687	74.97
676.919	73.71
677.152	74.08
677.385	73.67
677.617	73.21
677.85	73.86
678.083	71.11
678.315	72.48
678.548	71.2
678.78	70.52
679.013	68.98
679.246	67.76
679.478	69.04
679.711	66.99
679.943	68.81
680.175	65.58
680.408	68.08
680.64	64.52
680.873	65.07
681.105	63.57
681.338	66.3
681.57	65.85
681.802	67.43
682.034	67.25
682.267	69.59
682.499	70.75
682.731	68.93
682.964	67.79
683.196	66.23
683.428	62.99
683.66	60.93
683.892	62.95
684.124	64
684.356	65.53
684.589	64.41
684.821	63.4
685.053	62.37
685.285	62.45
685.517	63.18
685.749	64.68
685.981	64.55
686.213	65.98
686.445	65.38
686.676	61.56
686.908	61.58
687.14	59.72
687.372	59.82
687.604	54.43
687.836	55.35
688.068	54.68
688.299	52.92
688.531	49.09
688.763	53.14
688.995	49.87
689.226	53.54
689.458	50.58
689.69	49.16
689.921	47.67
690.153	48.23
690.384	49.27
690.616	48.58
690.848	49.6
691.079	46.29
691.311	44.53
691.542	42.83
691.774	41.23
692.005	42.96
692.237	44.43
692.468	42.29
692.699	42.56
692.931	40.55
693.162	39.08
693.393	38.08
693.625	36.49
693.856	37.74
694.087	37.71
694.319	39.02
694.55	38.99
694.781	39.77
695.012	38.37
695.243	37
695.475	37.67
695.706	37.96
695.937	35.45
696.168	35.41
696.399	31.79
696.63	32.58
696.861	31.92
697.092	36.96
697.323	38.84
697.554	38.33
697.785	38.8
698.016	38.68
698.247	36.86
698.478	39.21
698.709	39.97
698.94	42.18
699.171	41.76
699.401	40.19
699.632	41.52
699.863	38.58
700.094	37.97
700.325	40.1
700.555	40.11
700.786	41.86
701.017	41.28
701.247	41.25
701.478	41.22
701.709	41.22
701.939	40.76
702.17	42.37
702.401	43.48
702.631	44.09
702.862	41.73
703.092	37.72
703.323	39.8
703.553	40.97
703.784	40.39
704.014	40.62
704.244	34.99
704.475	33.55
704.705	34.1
704.936	34.34
705.166	32.74
705.396	34.76
705.627	33.09
705.857	32.76
706.087	32.66
706.317	29.13
706.548	26.78
706.778	25.36
707.008	25.92
707.238	26.79
707.468	24.96
707.698	22.85
707.928	20.26
708.158	18.61
708.389	16.78
708.619	14.42
708.849	12.96
709.079	13.03
709.309	11.13
709.539	9.45
709.768	9.86
709.998	12.44
710.228	13.04
710.458	11.67
710.688	9.84
710.918	10.34
711.148	10.24
711.378	10.72
711.607	9.92
711.837	9.92
712.067	9.19
712.297	8.38
712.526	7.58
712.756	9.29
712.986	7.48
713.215	5.67
713.445	7.61
713.674	7.49
713.904	8.02
714.134	9.92
714.363	9.04
714.593	9.24
714.822	9
715.052	10.11
715.281	11.65
715.511	11.45
715.74	12.92
715.969	12.73
716.199	12
716.428	12.47
716.657	10.85
716.887	11.31
717.116	9.93
717.345	11
717.575	10.89
717.804	11.64
718.033	10.52
718.262	9.69
718.492	10.11
718.721	8.93
718.95	8.03
719.179	5.75
719.408	7.93
719.637	4.61
719.866	2.88
720.095	4.26
720.324	3
720.553	-1.11
720.782	-1.4
721.011	-1.12
721.24	-2.59
721.469	-2.4
721.698	-3.44
721.927	-2.91
722.156	-3.96
722.385	-5.08
722.613	-1.24
722.842	-1.35
723.071	-0.5
723.3	0.13
723.529	-1.24
723.757	1.1
723.986	-0.81
724.215	-1.86
724.443	-0.09
724.672	2.22
724.901	2.79
725.129	4.41
725.358	7.02
725.586	5.1
725.815	6.03
726.043	5.36
726.272	5.15
726.5	3.28
726.729	5.17
726.957	1.42
727.186	-2.06
727.414	-0.38
727.642	1.88
727.871	4.51
728.099	4.4
728.327	4.78
728.556	5.34
728.784	6.75
729.012	5.06
729.241	6.39
729.469	6.55
729.697	3.06
729.925	2.2
730.153	1.92
730.381	3.27
730.61	3.82
730.838	0.73
731.066	1.89
731.294	2.53
731.522	-1.1
731.75	-5.58
731.978	-6.06
732.206	-6.38
732.434	-8.62
732.662	-7.47
732.89	-8.97
733.118	-10.14
733.346	-9.2
733.573	-7.32
733.801	-6.25
734.029	1.17
734.257	3.13
734.485	5.77
734.712	7.83
734.94	4.64
735.168	7.3
735.396	6.36
735.623	5.71
735.851	5.76
736.078	8.6
736.306	8.91
736.534	8.6
736.761	8.94
736.989	7.66
737.216	7.16
737.444	4.63
737.671	4.54
737.899	8.04
738.126	6.72
738.354	7.41
738.581	8.57
738.809	10.32
739.036	8.88
739.263	9.48
739.491	8.55
739.718	8.14
739.945	12.84
740.173	14.83
740.4	14.3
740.627	11.17
740.854	10.52
741.081	6.54
741.309	5.33
741.536	1.39
741.763	0.61
741.99	2.34
742.217	1.75
742.444	1.77
742.671	2.53
742.898	1.99
743.125	-1.42
743.352	-3.53
743.579	-4.4
743.806	-5.25
744.033	-2.88
744.26	-2.58
744.487	-3.51
744.714	-3.23
744.941	-3.32
745.167	-0.15
745.394	-1.79
745.621	-2.24
745.848	-2.64
746.075	0.07
746.301	1.65
746.528	5.44
746.755	4.07
746.981	2.78
747.208	3.73
747.435	6.32
747.661	7.14
747.888	7.39
748.114	6.29
748.341	8.28
748.567	10.01
748.794	7.07
749.02	7.13
749.247	4.26
749.473	2.4
749.7	1.23
749.926	1.12
750.152	5.55
750.379	5.8
750.605	7.11
750.831	7.42
751.058	5.63
751.284	4.84
751.51	7.85
751.737	8.98
751.963	6.9
752.189	4.92
752.415	4.35
752.641	4.11
752.867	4.83
753.094	2.36
753.32	0.55
753.546	-1.43
753.772	0.26
753.998	-1.56
754.224	-1.81
754.45	-2.21
754.676	-1.8
754.902	-2.4
755.128	-3.11
755.354	-3.69
755.579	-2.26
755.805	0.03
756.031	-2.8
756.257	-3.86
756.483	-3.31
756.709	-4.73
756.934	-5.7
757.16	-8.27
757.386	-7.19
757.612	-9.74
757.837	-10.89
758.063	-8.37
758.289	-6.56
758.514	-9.54
758.74	-12.43
758.965	-13.95
759.191	-12.49
759.416	-11.27
759.642	-9.83
759.868	-10.18
760.093	-8.85
760.318	-10.9
760.544	-10.59
760.769	-11.36
760.995	-11.21
761.22	-12.07
761.445	-12.05
761.671	-9.77
761.896	-7.77
762.121	-7.48
762.347	-8.73
762.572	-11.87
762.797	-12.3
763.022	-11.08
763.248	-6.91
763.473	-6.55
763.698	-5.27
763.923	-4.4
764.148	-4.92
764.373	-5.07
764.598	-2.85
764.823	0.11
765.048	-2.9
765.273	-5.21
765.498	-3.85
765.723	-2.58
765.948	-1.7
766.173	-3.38
766.398	-2.68
766.623	-4.44
766.848	-4.6
767.073	-6.41
767.298	-5.14
767.522	-4.75
767.747	-2.69
767.972	-3.19
768.197	-3.22
768.421	-4.98
768.646	-8.25
768.871	-10.89
769.095	-9.94
769.32	-8.74
769.545	-9.09
769.769	-7.71
769.994	-6.16
770.218	-8.17
770.443	-6.22
770.667	-6.54
770.892	-6.25
771.116	-6.71
771.341	-5.83
771.565	-7.15
771.79	-7.28
772.014	-7.71
772.238	-8.15
772.463	-6.97
772.687	-6.22
772.911	-6.11
773.136	-7.83
773.36	-6.65
773.584	-5.33
773.808	-7.58
774.033	-6.88
774.257	-7.75
774.481	-8.59
774.705	-9.56
774.929	-10.03
775.153	-9.31
775.377	-6.98
775.602	-7.02
775.826	-4.84
776.05	-4.18
776.274	-4.27
776.498	-3.15
776.722	-2.9
776.945	-3.06
777.169	-3.1
777.393	-4.92
777.617	-4.65
777.841	-4.03
778.065	-2.85
778.289	-4.26
778.512	-4.24
778.736	-3.92
778.96	-3.33
779.184	-1.27
779.407	-2.41
779.631	-3.72
779.855	-4.7
780.078	-3.22
780.302	-5.18
780.526	-7.97
780.749	-7.75
780.973	-6.7
781.196	-5.56
781.42	-8.17
781.643	-8.09
781.867	-6.42
782.09	-8.42
782.314	-9.68
782.537	-10.08
782.76	-11.68
782.984	-9.7
783.207	-10.15
783.431	-10.9
783.654	-14.33
783.877	-16
784.1	-16.62
784.324	-16.89
784.547	-18.07
784.77	-21.9
784.993	-23.43
785.216	-24.59
785.44	-24.77
785.663	-27.24
785.886	-26.14
786.109	-26.83
786.332	-26.31
786.555	-23.8
786.778	-21.7
787.001	-20.96
787.224	-19.78
787.447	-17.99
787.67	-16.59
787.893	-15.14
788.116	-15.41
788.339	-12.57
788.561	-14.07
788.784	-17.64
789.007	-18.85
789.23	-20.18
789.453	-19.84
789.675	-20.07
789.898	-23.02
790.121	-24.83
790.344	-23.88
790.566	-22.31
790.789	-21.06
791.012	-21.45
791.234	-18.6
791.457	-15.92
791.679	-13.52
791.902	-12.93
792.124	-11.46
792.347	-11.88
792.569	-12
792.792	-14.24
793.014	-12.58
793.237	-11.83
793.459	-13.43
793.681	-14.41
793.904	-15.65
794.126	-16.66
794.348	-16.45
794.571	-15.23
794.793	-17.71
795.015	-17.3
795.237	-18.72
795.46	-18.08
795.682	-16.76
795.904	-14.08
796.126	-14.69
796.348	-15.64
796.57	-13.7
796.792	-11.83
797.014	-7.56
797.237	-6.78
797.459	-5.4
797.681	-4.97
797.903	-5.73
798.124	-6.26
798.346	4.31
798.568	5.01
798.79	7.31
799.012	7.97
799.234	9.02
799.456	10.67
799.678	11.66
799.899	9.49
800.121	7.01
800.343	7
800.565	7.44
800.786	7.99
801.008	9.52
801.23	8.88
801.451	9.99
801.673	8.79
801.895	8.62
802.116	9.52
802.338	11.47
802.559	10.42
802.781	8.47
803.002	10.52
803.224	12.99
803.445	12.16
803.667	12.73
803.888	10.5
804.109	10.5
804.331	10.06
804.552	9.71
804.773	12.51
804.995	9.02
805.216	-2.79
805.437	-4.09
805.658	-6.32
805.88	-8.27
806.101	-8.11
806.322	-8.7
806.543	-8.63
806.764	-10.33
806.985	-7.91
807.207	-7.46
807.428	-6.69
807.649	-9.4
807.87	-11.77
808.091	-10.81
808.312	-11.95
808.533	-7.55
808.754	-5.25
808.975	-5.33
809.195	-4.44
809.416	-3.58
809.637	-3.1
809.858	-4.44
810.079	-6.13
810.3	-5.76
810.52	-7.71
810.741	-9.06
810.962	-10.09
811.183	-8.86
811.403	-8.42
811.624	-9.75
811.845	-6.45
812.065	-6.34
812.286	-5.7
812.506	-4.1
812.727	-3.38
812.948	-3.19
813.168	-1.62
813.389	-2.82
813.609	-1.94
813.83	-3.54
814.05	-4.2
814.27	-4.48
814.491	-0.65
814.711	-1.38
814.931	-4.3
815.152	-4.15
815.372	-5.51
815.592	-7.71
815.813	-9.81
816.033	-10.8
816.253	-9.45
816.473	-9.6
816.694	-8.52
816.914	-7.51
817.134	-7.38
817.354	-8.44
817.574	-7.87
817.794	-8.67
818.014	-11.76
818.234	-11.9
818.454	-13.64
818.674	-16.02
818.894	-18.04
819.114	-15.45
819.334	-15.03
819.554	-14.04
819.774	-11.36
819.994	-13.56
820.214	-14
820.433	-12.66
820.653	-12.76
820.873	-11.67
821.093	-12.18
821.312	-14.16
821.532	-11.78
821.752	-8.75
821.972	-10.59
822.191	-10.33
822.411	-11.1
822.63	-9.94
822.85	-10.92
823.07	-13.5
823.289	-13.43
823.509	-14.9
823.728	-13.62
823.948	-15
824.167	-15.25
824.387	-15.85
824.606	-14.2
824.825	-14.62
825.045	-15.07
825.264	-13.14
825.483	-11.02
825.703	-9.08
825.922	-11.98
826.141	-14.74
826.361	-15.25
826.58	-18.59
826.799	-19.38
827.018	-18.26
827.237	-18.29
827.456	-16.88
827.676	-16.34
827.895	-15.34
828.114	-13.88
828.333	-13.85
828.552	-14.2
828.771	-13.09
828.99	-14.74
829.209	-15.36
829.428	-13.45
829.647	-12
829.866	-10.2
830.084	-10.03
830.303	-10.18
830.522	-10.39
830.741	-10.37
830.96	-10.65
831.179	-10.57
831.397	-11.23
831.616	-9.48
831.835	-9.19
832.053	-10.11
832.272	-10.42
832.491	-10.8
832.709	-11.09
832.928	-10.11
833.147	-10.28
833.365	-9.31
833.584	-6.79
833.802	-3.16
834.021	-3.19
834.239	-2.65
834.458	-4.22
834.676	-7.74
834.894	-7.75
835.113	-8.65
835.331	-9.47
835.55	-8.83
835.768	-8.09
835.986	-5.77
836.204	-7.15
836.423	-7.75
836.641	-8.6
836.859	-10.13
837.077	-10.2
837.296	-11.97
837.514	-12.28
837.732	-12.02
837.95	-12.29
838.168	-11.19
838.386	-13.55
838.604	-11.19
838.822	-11.28
839.04	-11.77
839.258	-10.05
839.476	-8.87
839.694	-8.91
839.912	-9.16
840.13	-9.54
840.348	-7.28
840.566	-10.78
840.783	-8.41
841.001	-9.85
841.219	-8.19
841.437	-5.66
841.655	-5.83
841.872	-6.07
842.09	-5.18
842.308	-5.75
842.525	-6.17
842.743	-6.77
842.961	-7.67
843.178	-9.77
843.396	-7.1
843.613	-6.18
843.831	-4.09
844.048	-2.57
844.266	-2.41
844.483	-2.46
844.701	-2.98
844.918	-2.98
845.136	-1.68
845.353	-3.96
845.57	-3.24
845.788	-0.69
846.005	-2.07
846.222	-2.75
846.439	-0.94
846.657	-1.29
846.874	-0.36
847.091	-3.05
847.308	-1.42
847.526	-3.37
847.743	-2.72
847.96	-4.26
848.177	-4.61
848.394	-5.64
848.611	-5.75
848.828	-7.22
849.045	-6.78
849.262	-6.38
849.479	-5.82
849.696	-7.58
849.913	-8.52
850.13	-11.55
850.347	-9.22
850.564	-10.54
850.78	-11.53
850.997	-13.7
851.214	-12.92
851.431	-12.64
851.647	-14.79
851.864	-13.56
852.081	-11.92
852.298	-14.51
852.514	-16.8
852.731	-15.2
852.948	-13.36
853.164	-13.08
853.381	-12.36
853.597	-15.2
853.814	-16.51
854.03	-19.08
854.247	-18.17
854.463	-19.43
854.68	-19.25
854.896	-18.41
855.113	-17.48
855.329	-16.72
855.545	-14.33
855.762	-16.41
855.978	-18.05
856.194	-19.76
856.411	-15.86
856.627	-13.62
856.843	-14.17
857.059	-12.37
857.275	-12.96
857.492	-12.86
857.708	-9.38
857.924	-8.95
858.14	-6.73
858.356	-7.88
858.572	-8.88
858.788	-10.43
859.004	-7.64
859.22	-9.73
859.436	-10.42
859.652	-12.19
859.868	-13.99
860.084	-14.61
860.3	-12.84
860.516	-13.95
860.731	-13.18
860.947	-14.94
861.163	-12.92
861.379	-12.05
861.595	-10.93
861.81	-11.83
862.026	-12.37
862.242	-12.99
862.457	-12.47
862.673	-10.55
862.889	-10.02
863.104	-10.45
863.32	-10.25
863.535	-8.68
863.751	-12.69
863.966	-10.45
864.182	-8.79
864.397	-9.75
864.613	-10.91
864.828	-10.77
865.044	-8.49
865.259	-6.98
865.474	-6.81
865.69	-6.01
865.905	-3.95
866.12	-6
866.336	-6.25
866.551	-4.65
866.766	-5.3
866.981	-6.72
867.196	-5.38
867.412	-5.1
867.627	-4.18
867.842	-4.24
868.057	-5.61
868.272	-7.58
868.487	-8.19
868.702	-9.52
868.917	-10.73
869.132	-8.84
869.347	-9.81
869.562	-10.99
869.777	-10.89
869.992	-11.73
870.207	-11.32
870.422	-10.49
870.636	-11.32
870.851	-12.76
871.066	-13.75
871.281	-13.4
871.495	-17.38
871.71	-16.18
871.925	-17.45
872.14	-19.09
872.354	-21.15
872.569	-22.95
872.783	-21.42
872.998	-21.53
873.213	-21.99
873.427	-20.22
873.642	-19.08
873.856	-18.68
874.071	-18.33
874.285	-19.52
874.5	-21.9
874.714	-23.06
874.928	-22.91
875.143	-22.05
875.357	-21.78
875.571	-21.34
875.786	-21.25
876	-17.74
876.214	-16.77
876.429	-19.18
876.643	-17.49
876.857	-17.26
877.071	-17.96
877.285	-18.69
877.499	-22.31
877.714	-20.19
877.928	-17.69
878.142	-17.61
878.356	-19.07
878.57	-18.58
878.784	-16.53
878.998	-17.39
879.212	-15.64
879.426	-17.79
879.639	-16.36
879.853	-17.65
880.067	-16.71
880.281	-17.26
880.495	-16.15
880.709	-15.15
880.922	-14.48
881.136	-12.82
881.35	-10.37
881.564	-11.1
881.777	-12.88
881.991	-11.84
882.205	-9.86
882.418	-10.81
882.632	-13.64
882.845	-13.87
883.059	-13.12
883.273	-14.52
883.486	-15.67
883.7	-12.49
883.913	-13.04
884.126	-10.04
884.34	-12.93
884.553	-14.82
884.767	-10.6
884.98	-10.67
885.193	-12.28
885.407	-13.81
885.62	-11.87
885.833	-11.81
886.046	-9.99
886.26	-11.21
886.473	-11.01
886.686	-11.77
886.899	-10.39
887.112	-11.96
887.326	-13.84
887.539	-12.39
887.752	-11.59
887.965	-14.42
888.178	-13.41
888.391	-12.71
888.604	-13.07
888.817	-14.91
889.03	-13.32
889.243	-14.82
889.455	-15.77
889.668	-14.98
889.881	-13.21
890.094	-13.61
890.307	-16.66
890.52	-15.56
890.732	-14.99
890.945	-14.48
891.158	-14.7
891.37	-16.8
891.583	-16.46
891.796	-15.23
892.008	-15.72
892.221	-15.56
892.434	-19.29
892.646	-20.24
892.859	-19.55
893.071	-19.7
893.284	-19.36
893.496	-20.45
893.709	-21.48
893.921	-19.59
894.133	-21.52
894.346	-20.94
894.558	-20.83
894.771	-20.88
894.983	-19.12
895.195	-17.88
895.407	-17.27
895.62	-20.19
895.832	-20.05
896.044	-18.49
896.256	-19.68
896.468	-21.06
896.681	-18.67
896.893	-17.18
897.105	-17.3
897.317	-18.74
897.529	-17.75
897.741	-16.84
897.953	-15.1
898.165	-16.53
898.377	-17.01
898.589	-15.59
898.801	-16.76
899.013	-12.53
899.224	-9.1
899.436	-8.45
899.648	-8.86
899.86	-9.83
900.072	-7.19
900.283	-4.44
900.495	-3.83
900.707	-2.56
900.919	-5.96
901.13	-4.67
901.342	-6.07
901.554	-7.16
901.765	-7.63
901.977	-9.01
902.188	-8.7
902.4	-8.43
902.611	-10
902.823	-11.07
903.034	-13.32
903.246	-16.02
903.457	-17.31
903.669	-18.51
903.88	-16.68
904.091	-17.47
904.303	-17.02
904.514	-17.08
904.725	-15.66
904.936	-15.31
905.148	-14.79
905.359	-13.39
905.57	-14.84
905.781	-17.78
905.992	-18.29
906.204	-17.38
906.415	-16.53
906.626	-18.63
906.837	-16.45
907.048	-19.13
907.259	-20.8
907.47	-21.42
907.681	-22.36
907.892	-19.55
908.103	-19.51
908.314	-22.33
908.525	-20.89
908.735	-20.1
908.946	-21
909.157	-20.7
909.368	-17.58
909.579	-14.72
909.789	-15.98
910	-17.21
910.211	-15.16
910.421	-16.93
910.632	-15.72
910.843	-19.13
911.053	-17.38
911.264	-15.25
911.475	-17.88
911.685	-18.17
911.896	-18.78
912.106	-18.21
912.317	-19.34
912.527	-18.01
912.737	-18.59
912.948	-19.97
913.158	-19.69
913.369	-23.56
913.579	-19.93
913.789	-18.43
914	-16.07
914.21	-15.26
914.42	-16.22
914.63	-17.03
914.841	-15.22
915.051	-14.01
915.261	-13.71
915.471	-10.85
915.681	-9.96
915.891	-11.51
916.101	-13.61
916.311	-12.99
916.521	-10.71
916.731	-11.12
916.941	-8.7
917.151	-9.55
917.361	-6.13
917.571	-9.37
917.781	-10.52
917.991	-10.02
918.201	-11.52
918.411	-12.21
918.621	-13.22
918.83	-12.9
919.04	-14.44
919.25	-11.6
919.46	-9.53
919.669	-11.73
919.879	-10.6
920.089	-13.94
920.298	-15.57
920.508	-14.47
920.717	-13.67
920.927	-14.51
921.136	-13.64
921.346	-14.19
921.555	-17.82
921.765	-17.81
921.974	-19.68
922.184	-22.26
922.393	-22.61
922.603	-22.8
922.812	-20.1
923.021	-21.1
923.23	-21.74
923.44	-24.76
923.649	-24.14
923.858	-24.66
924.067	-25.39
924.277	-27.05
924.486	-24.12
924.695	-23.2
924.904	-22.64
925.113	-21.63
925.322	-19.51
925.531	-19.3
925.74	-22.4
925.949	-22.83
926.158	-21.67
926.367	-22.12
926.576	-20.08
926.785	-19.53
926.994	-20.14
927.203	-19.58
927.412	-19.9
927.621	-20.58
927.83	-17.95
928.038	-16.57
928.247	-17.22
928.456	-17.18
928.665	-14.76
928.873	-13.22
929.082	-11.46
929.291	-11.75
929.499	-10.57
929.708	-12.4
929.916	-10.77
930.125	-11.71
930.333	-13.17
930.542	-10.75
930.75	-8.61
930.959	-9.13
931.167	-9.22
931.376	-9.72
931.584	-9.9
931.793	-11.15
932.001	-11.1
932.209	-12.16
932.418	-15.25
932.626	-15.38
932.834	-16.96
933.042	-18.83
933.251	-19.53
933.459	-19.53
933.667	-21.1
933.875	-20.73
934.083	-19.53
934.291	-19.45
934.499	-18.6
934.707	-19.43
934.915	-19.06
935.123	-17.36
935.331	-18.53
935.539	-20.18
935.747	-21.28
935.955	-23.15
936.163	-21.11
936.371	-20.05
936.579	-18.24
936.787	-17.63
936.995	-19
937.202	-21.27
937.41	-21.18
937.618	-21.63
937.826	-20.15
938.033	-23.14
938.241	-23.09
938.449	-21.36
938.656	-19.03
938.864	-18.04
939.071	-18.67
939.279	-15.83
939.486	-14.38
939.694	-15.41
939.901	-17.01
940.109	-15.72
940.316	-16.51
940.524	-17.54
940.731	-19.27
940.939	-19.22
941.146	-19.08
941.353	-20.25
941.561	-20.67
941.768	-19.98
941.975	-19.03
942.182	-20.06
942.39	-18.82
942.597	-17.51
942.804	-18.55
943.011	-19.61
943.218	-18.86
943.425	-18.7
943.632	-17.79
943.839	-19.11
944.046	-19.59
944.253	-20.32
944.46	-18.65
944.667	-16.16
944.874	-17.03
945.081	-15.51
945.288	-14.62
945.495	-12
945.702	-12.97
945.909	-14.95
946.115	-12.99
946.322	-15.14
946.529	-16.5
946.736	-16.23
946.942	-14.36
947.149	-14.47
947.356	-14.82
947.562	-16.02
947.769	-15.89
947.976	-17.54
948.182	-17.21
948.389	-18.87
948.595	-16.75
948.802	-16.36
949.008	-17.53
949.215	-16.31
949.421	-15.67
949.628	-17.6
949.834	-17.79
950.04	-18.43
950.247	-14.22
950.453	-14.29
950.659	-15.93
950.865	-13.35
951.072	-17.21
951.278	-15.46
951.484	-17.57
951.69	-19.36
951.896	-21.34
952.103	-21.67
952.309	-20.63
952.515	-20.35
952.721	-16.35
952.927	-14.48
953.133	-14.64
953.339	-15.6
953.545	-16.58
953.751	-16.12
953.957	-13.57
954.163	-14.1
954.369	-14.07
954.574	-15.66
954.78	-14.91
954.986	-14.68
955.192	-14.18
955.398	-15.08
955.603	-18.65
955.809	-18.49
956.015	-17.48
956.22	-16.7
956.426	-17.11
956.632	-21.88
956.837	-21.34
957.043	-21.54
957.248	-22.65
957.454	-20.79
957.66	-23.06
957.865	-23.22
958.07	-21.49
958.276	-21.24
958.481	-21.84
958.687	-22.46
958.892	-23.13
959.097	-24.27
959.303	-24.6
959.508	-24.69
959.713	-25.27
959.919	-25.13
960.124	-25.97
960.329	-25.15
960.534	-22.52
960.739	-20.62
960.945	-18.65
961.15	-18.52
961.355	-18.94
961.56	-21.52
961.765	-21.52
961.97	-20.88
962.175	-18.78
962.38	-21.75
962.585	-22.04
962.79	-22.71
962.995	-22.63
963.2	-22.97
963.404	-21.53
963.609	-23.68
963.814	-25.7
964.019	-27.27
964.224	-29.65
964.428	-28.48
964.633	-28.25
964.838	-27.22
965.042	-27.15
965.247	-28.25
965.452	-27.87
965.656	-26.87
965.861	-25.73
966.066	-26.39
966.27	-23.59
966.475	-19.99
966.679	-23.72
966.884	-24.35
967.088	-26.92
967.292	-26.47
967.497	-24.6
967.701	-26.32
967.906	-24.62
968.11	-23.16
968.314	-18.59
968.518	-20.18
968.723	-16.37
968.927	-15.05
969.131	-12.73
969.335	-10.03
969.539	-8.47
969.744	-7.13
969.948	-4.34
970.152	-2.22
970.356	-1.26
970.56	-0.49
970.764	-2.15
970.968	0.19
971.172	-0.34
971.376	1.48
971.58	2.26
971.784	2.34
971.988	-0.05
972.192	1.16
972.395	0.55
972.599	-2.41
972.803	-4.47
973.007	-3
973.21	-3.26
973.414	-3.68
973.618	-4.6
973.822	-5.96
974.025	-5.59
974.229	-6.58
974.432	-9.02
974.636	-11.79
974.84	-11.89
975.043	-13.13
975.247	-14.12
975.45	-15.3
975.654	-15.02
975.857	-15.11
976.06	-16.44
976.264	-18.12
976.467	-18.34
976.671	-19.22
976.874	-17.92
977.077	-19.29
977.28	-20.01
977.484	-20.44
977.687	-21.94
977.89	-20.46
978.093	-21.24
978.297	-19.36
978.5	-21.51
978.703	-19.5
978.906	-19.3
979.109	-18.87
979.312	-18.15
979.515	-18.05
979.718	-17.72
979.921	-17.84
980.124	-18.73
980.327	-18.32
980.53	-19.2
980.733	-16.57
980.936	-14.48
981.138	-16.52
981.341	-15.13
981.544	-15.73
981.747	-16.12
981.949	-17.56
982.152	-17.15
982.355	-18.13
982.558	-15.58
982.76	-16.68
982.963	-15.31
983.165	-13.4
983.368	-11.51
983.571	-12.96
983.773	-11.67
983.976	-11.24
984.178	-10.3
984.381	-9.06
984.583	-11.27
984.785	-10.92
984.988	-9.6
985.19	-7.37
985.392	-8.88
985.595	-9.92
985.797	-9.49
985.999	-7.13
986.202	-6.03
986.404	-5.72
986.606	-4.08
986.808	-3.41
987.01	-3.38
987.212	-3.87
987.415	-3.75
987.617	-2.84
987.819	-2.43
988.021	-1.27
988.223	-3.18
988.425	-4.21
988.627	-3.27
988.829	-6.38
989.031	-5.65
989.232	-6.78
989.434	-8.41
989.636	-9.22
989.838	-8.71
990.04	-7.68
990.242	-8.53
990.443	-10.26
990.645	-10.18
990.847	-7.94
991.048	-6.47
991.25	-9.75
991.452	-9.91
991.653	-12.15
991.855	-11.81
992.057	-12.36
992.258	-12.55
992.46	-13.48
992.661	-13.58
992.863	-14.88
993.064	-14.7
993.265	-15.67
993.467	-17.96
993.668	-15.71
993.87	-16.96
994.071	-17.22
994.272	-16.87
994.473	-14.21
994.675	-13.52
994.876	-14.38
995.077	-13.05
995.278	-12.06
995.48	-11.46
995.681	-12.36
995.882	-10.46
996.083	-11.11
996.284	-15.37
996.485	-15.39
996.686	-15.9
996.887	-16.31
997.088	-19.55
997.289	-21.07
997.49	-19.6
997.691	-20.04
997.892	-18.69
998.092	-14.86
998.293	-14.91
998.494	-14.7
998.695	-14.56
998.896	-12.23
999.096	-12.62
999.297	-12.2
999.498	-13.39
999.698	-15.04
999.899	-18.4
1000.1	-21.04
1000.3	-21
1000.501	-21.71
1000.701	-22.25
1000.902	-23.76
1001.102	-22.85
1001.303	-22.37
1001.503	-24.21
1001.704	-23.77
1001.904	-23.93
1002.105	-24.11
1002.305	-23.76
1002.505	-23.55
1002.706	-23.91
1002.906	-24.09
1003.106	-25.26
1003.306	-24.23
1003.507	-23.47
1003.707	-24.61
1003.907	-22.4
1004.107	-21.45
1004.307	-23.76
1004.507	-23.29
1004.707	-24.54
1004.907	-26.85
1005.107	-27.3
1005.308	-27.2
1005.507	-27.97
1005.707	-25.79
1005.907	-25.01
1006.107	-21.79
1006.307	-20.01
1006.507	-21.37
1006.707	-21.26
1006.907	-21.61
1007.106	-20.64
1007.306	-22.51
1007.506	-22.21
1007.706	-21.77
1007.905	-22.89
1008.105	-22.69
1008.305	-23.55
1008.504	-22.88
1008.704	-18.03
1008.903	-16.82
1009.103	-15.47
1009.303	-16.98
1009.502	-17.66
1009.702	-17.78
1009.901	-16.49
1010.1	-19.64
1010.3	-18.6
1010.499	-19.51
1010.699	-20.49
1010.898	-20.74
1011.097	-20.36
1011.296	-21.79
1011.496	-21.42
1011.695	-21.88
1011.894	-24.88
1012.093	-21.91
1012.293	-22.74
1012.492	-22.72
1012.691	-21.56
1012.89	-23.07
1013.089	-25.03
1013.288	-24.14
1013.487	-21.26
1013.686	-22.31
1013.885	-24.63
1014.084	-23.81
1014.283	-24.24
1014.482	-24.16
1014.681	-24.34
1014.88	-27.89
1015.078	-27.78
1015.277	-30.22
1015.476	-30.22
1015.675	-28.68
1015.873	-29.24
1016.072	-30.77
1016.271	-27.6
1016.47	-30.04
1016.668	-28.9
1016.867	-29.54
1017.065	-31.42
1017.264	-31.33
1017.463	-29.96
1017.661	-30.73
1017.86	-29.67
1018.058	-27.47
1018.256	-27.88
1018.455	-28.12
1018.653	-27.61
1018.852	-27.09
1019.05	-27.44
1019.248	-27.33
1019.447	-27.41
1019.645	-28.38
1019.843	-28.17
1020.041	-25.01
1020.24	-25.2
1020.438	-20.87
1020.636	-21.27
1020.834	-24.04
1021.032	-21.01
1021.23	-21.73
1021.428	-19.71
1021.626	-16.92
1021.824	-17.57
1022.022	-17.32
1022.22	-15.42
1022.418	-15.86
1022.616	-16.86
1022.814	-16.89
1023.012	-17.15
1023.21	-13.42
1023.408	-13.62
1023.606	-15.13
1023.803	-10.95
1024.001	-10.67
1024.199	-12.84
1024.397	-14.12
1024.594	-13.64
1024.792	-15.53
1024.99	-14.89
1025.187	-14.78
1025.385	-11.53
1025.582	-10.68
1025.78	-10.17
1025.977	-11.77
1026.175	-12.62
1026.372	-13.68
1026.57	-15.77
1026.767	-14.11
1026.965	-13.16
1027.162	-13.92
1027.359	-13.99
1027.557	-13.47
1027.754	-15.99
1027.951	-15.42
1028.148	-13.51
1028.346	-15.17
1028.543	-16.97
1028.74	-16.07
1028.937	-19.55
1029.134	-19.86
1029.331	-21.7
1029.528	-21.33
1029.725	-20.54
1029.923	-23.67
1030.12	-20.72
1030.317	-20.04
1030.513	-17.35
1030.71	-17.04
1030.907	-14.1
1031.104	-14.78
1031.301	-14.1
1031.498	-14.24
1031.695	-15.49
1031.892	-15.97
1032.088	-14.95
1032.285	-16.1
1032.482	-16.77
1032.678	-19.58
1032.875	-21.49
1033.072	-19.6
1033.268	-19.75
1033.465	-19.77
1033.662	-22.49
1033.858	-21.67
1034.055	-22.77
1034.251	-21.39
1034.448	-22.22
1034.644	-22.43
1034.84	-21.37
1035.037	-17.66
1035.233	-17.35
1035.43	-15.6
1035.626	-15.34
1035.822	-16.45
1036.019	-17.51
1036.215	-21.94
1036.411	-21.76
1036.607	-23.67
1036.803	-25.88
1037	-27.96
1037.196	-29.83
1037.392	-31.34
1037.588	-33.89
1037.784	-33.36
1037.98	-33.79
1038.176	-33.42
1038.372	-33.91
1038.568	-31
1038.764	-29.57
1038.96	-28.13
1039.156	-30.27
1039.352	-32.06
1039.547	-30.29
1039.743	-29.69
1039.939	-27.89
1040.135	-28.14
1040.331	-30.44
1040.526	-28.41
1040.722	-29.45
1040.918	-29.23
1041.113	-31.8
1041.309	-30.96
1041.505	-33.65
1041.7	-32.8
1041.896	-32.43
1042.091	-32.29
1042.287	-31.35
1042.482	-30.73
1042.678	-31.76
1042.873	-30.9
1043.069	-30.55
1043.264	-29.39
1043.459	-27.43
1043.655	-25.82
1043.85	-27.19
1044.045	-26.91
1044.24	-27.1
1044.436	-24.58
1044.631	-26.94
1044.826	-26.95
1045.021	-28.84
1045.216	-27.13
