Data from led2700K_USB4H112691__3__12-54-58-102.txt Node

Date: Tue Dec 17 12:54:58 CET 2024
User: Etudiants TP
Spectrometer: USB4H11269
Trigger mode: 4
Integration Time (sec): 1.000000E0
Scans to average: 1
Electric dark correction enabled: true
Nonlinearity correction enabled: false
Boxcar width: 0
XAxis mode: Wavelengths
Number of Pixels in Spectrum: 3648
>>>>>Begin Spectral Data<<<<<
286.377	-1723.2
286.631	-1723.2
286.884	-1723.2
287.138	-1696.57
287.391	-1667.9
287.644	-906.06
287.896	-670.54
288.149	724.13
288.401	636.06
288.653	-582.48
288.905	-545.61
289.157	914.59
289.409	298.15
289.661	-365.39
289.912	-711.5
290.163	451.75
290.414	756.9
290.665	-699.21
290.916	-570.19
291.166	513.19
291.417	1078.43
291.667	-633.68
291.917	-283.47
292.167	504.99
292.417	472.23
292.666	-764.75
292.916	-691.02
293.165	601.25
293.414	705.7
293.663	-887.62
293.912	-856.9
294.16	734.37
294.408	765.09
294.657	-721.74
294.905	-398.16
295.153	601.25
295.4	615.59
295.648	-856.9
295.895	-766.79
296.143	208.04
296.39	836.77
296.637	-662.35
296.884	-768.84
297.13	580.77
297.377	937.12
297.623	-578.38
297.869	-248.66
298.115	740.51
298.361	763.04
298.606	-774.99
298.852	-742.22
299.097	466.08
299.342	920.73
299.587	-439.12
299.832	-584.52
300.077	734.37
300.322	636.06
300.566	-672.59
300.81	-439.12
301.054	517.28
301.298	793.76
301.542	-217.94
301.785	-361.3
302.029	885.92
302.272	683.17
302.515	-807.75
302.758	-502.61
303.001	732.32
303.244	750.75
303.486	-480.08
303.729	-918.34
303.971	1029.27
304.213	791.71
304.455	-889.67
304.696	-295.76
304.938	324.77
305.179	869.53
305.421	-512.85
305.662	-447.31
305.903	367.78
306.143	349.35
306.384	-439.12
306.625	-555.85
306.865	486.56
307.105	316.58
307.345	-510.8
307.585	-502.61
307.825	76.97
308.064	806.05
308.304	-617.29
308.543	-854.86
308.782	599.2
309.021	904.35
309.26	-422.73
309.499	-613.2
309.737	973.98
309.976	756.9
310.214	-774.99
310.452	-625.48
310.69	1109.15
310.928	208.04
311.165	-672.59
311.403	-648.01
311.64	982.17
311.878	650.4
312.115	-596.81
312.351	-559.95
312.588	511.14
312.825	945.31
313.061	-795.47
313.298	-41.81
313.534	351.4
313.77	877.73
314.006	-684.87
314.241	-635.72
314.477	715.94
314.713	1152.15
314.948	-586.57
315.183	267.43
315.418	994.46
315.653	568.48
315.888	-740.17
316.122	-353.1
316.357	355.49
316.591	838.81
316.825	-557.9
317.059	-652.11
317.293	978.08
317.527	429.22
317.76	-770.89
317.994	-508.75
318.227	720.03
318.46	1299.61
318.693	-758.6
318.926	-471.89
319.159	72.87
319.391	683.17
319.624	-799.56
319.856	-578.38
320.088	797.85
320.321	711.84
320.552	-303.95
320.784	-658.25
321.016	822.43
321.247	-50
321.479	-447.31
321.71	-330.58
321.941	-86.87
322.172	1098.91
322.403	-742.22
322.633	-373.58
322.864	818.33
323.094	203.94
323.325	-90.96
323.555	-652.11
323.785	224.42
324.014	341.16
324.244	-527.18
324.474	-373.58
324.703	994.46
324.933	963.74
325.162	-375.63
325.391	-889.67
325.62	23.72
325.848	908.44
326.077	-557.9
326.306	-439.12
326.534	652.45
326.762	986.27
326.99	-611.15
327.218	-353.1
327.446	865.44
327.674	85.16
327.901	-666.44
328.129	-627.53
328.356	775.33
328.583	150.7
328.81	-688.97
329.037	-437.07
329.264	515.23
329.491	875.68
329.717	-510.8
329.944	-697.16
330.17	441.51
330.396	177.32
330.622	-697.16
330.848	-435.02
331.074	517.28
331.299	1399.96
331.525	-783.18
331.75	-664.4
331.975	1002.65
332.201	249
332.426	-848.71
332.65	-750.41
332.875	-88.92
333.1	453.8
333.324	-664.4
333.549	-594.76
333.773	310.44
333.997	539.81
334.221	-641.87
334.445	-643.92
334.668	674.98
334.892	1152.15
335.116	-326.48
335.339	-514.89
335.562	-78.68
335.785	519.33
336.008	-332.62
336.231	-645.96
336.454	-197.46
336.676	953.5
336.899	-467.79
337.121	-332.62
337.343	89.26
337.566	566.43
337.788	-609.1
338.009	-746.31
338.231	224.42
338.453	527.52
338.674	3243.13
338.896	-435.02
339.117	-4.95
339.338	1100.95
339.559	-766.79
339.78	-518.99
340.001	130.22
340.222	867.49
340.442	-621.39
340.663	-306
340.883	744.61
341.103	548
341.323	-574.28
341.543	-439.12
341.763	853.15
341.983	335.01
342.202	-731.98
342.422	-680.78
342.641	1117.34
342.861	435.36
343.08	-213.84
343.299	-672.59
343.518	588.96
343.736	568.48
343.955	-570.19
344.174	-715.59
344.392	871.58
344.61	50.35
344.829	-740.17
345.047	-570.19
345.265	679.07
345.483	937.12
345.7	-576.33
345.918	-136.02
346.136	146.6
346.353	842.91
346.57	-717.64
346.788	-779.08
347.005	306.34
347.222	-136.02
347.438	-95.06
347.655	-547.66
347.872	105.64
348.088	1076.38
348.305	-330.58
348.521	-699.21
348.737	179.37
348.953	971.93
349.169	-185.17
349.385	-467.79
349.601	390.31
349.817	-123.73
350.032	-160.59
350.248	-291.66
350.463	1250.46
350.678	-189.27
350.893	-607.05
351.108	-777.03
351.323	199.85
351.538	869.53
351.753	-672.59
351.967	-613.2
352.182	824.48
352.396	232.62
352.61	-721.74
352.824	-461.65
353.038	666.78
353.252	855.2
353.466	-449.36
353.68	-521.04
353.894	410.79
354.107	281.77
354.32	-420.69
354.534	-656.2
354.747	699.55
354.96	74.92
355.173	-406.35
355.386	-795.47
355.599	494.76
355.811	263.33
356.024	-713.55
356.236	-478.03
356.449	269.48
356.661	367.78
356.873	-762.7
357.085	-840.52
357.297	668.83
357.509	650.4
357.721	-629.58
357.933	-578.38
358.144	285.86
358.356	240.81
358.567	-308.05
358.778	-803.66
358.989	875.68
359.2	115.88
359.411	-500.56
359.622	-455.5
359.833	412.84
360.044	400.55
360.254	-676.68
360.465	-748.36
360.675	498.85
360.885	400.55
361.096	-758.6
361.306	-545.61
361.516	199.85
361.726	511.14
361.935	-865.1
362.145	-641.87
362.355	588.96
362.564	509.09
362.774	-779.08
362.983	-832.33
363.192	1019.04
363.401	167.08
363.61	-742.22
363.819	-269.14
364.028	433.32
364.237	912.54
364.445	-588.62
364.654	-459.6
364.862	339.11
365.071	208.04
365.279	-428.88
365.487	-750.41
365.695	658.59
365.903	408.74
366.111	-697.16
366.319	-518.99
366.527	601.25
366.734	375.97
366.942	-463.69
367.149	-742.22
367.357	-617.29
367.564	1053.85
367.771	-547.66
367.978	-660.3
368.185	216.23
368.392	298.15
368.599	-312.14
368.806	-643.92
369.013	31.91
369.219	629.92
369.426	-748.36
369.632	-250.71
369.838	1051.8
370.044	691.36
370.251	-496.46
370.457	-566.09
370.663	863.39
370.868	453.8
371.074	-578.38
371.28	-617.29
371.485	-103.25
371.691	691.36
371.896	-635.72
372.102	-738.12
372.307	961.69
372.512	801.95
372.717	-596.81
372.922	-328.53
373.127	52.39
373.332	480.42
373.537	-453.45
373.741	-508.75
373.946	646.3
374.151	339.11
374.355	-787.27
374.559	-488.27
374.764	249
374.968	-254.8
375.172	-615.24
375.376	-244.56
375.58	480.42
375.784	66.73
375.987	-783.18
376.191	-627.53
376.395	230.57
376.598	191.66
376.802	-701.26
377.005	-297.81
377.208	261.29
377.412	97.45
377.615	-807.75
377.818	-633.68
378.021	238.76
378.224	-68.44
378.426	-598.86
378.629	-811.85
378.832	771.23
379.034	558.24
379.237	-893.77
379.439	-893.77
379.642	638.11
379.844	502.95
380.046	-897.86
380.248	-744.27
380.45	-176.98
380.652	-146.26
380.854	-582.48
381.056	-641.87
381.258	322.73
381.459	492.71
381.661	-752.46
381.862	-359.25
382.064	-103.25
382.265	201.9
382.467	-758.6
382.668	-478.03
382.869	724.13
383.07	429.22
383.271	-478.03
383.472	-680.78
383.673	580.77
383.874	265.38
384.074	-480.08
384.275	-779.08
384.476	591.01
384.676	1205.4
384.876	-807.75
385.077	-570.19
385.277	679.07
385.477	801.95
385.677	-709.45
385.878	-551.76
386.078	208.04
386.278	316.58
386.477	-385.87
386.677	-279.38
386.877	478.37
387.077	687.26
387.276	-340.82
387.476	-582.48
387.675	443.56
387.875	838.81
388.074	-738.12
388.273	-584.52
388.472	887.97
388.671	-142.16
388.87	-693.07
389.069	-191.31
389.268	-152.4
389.467	48.3
389.666	-691.02
389.865	-267.09
390.063	535.71
390.262	783.52
390.461	-660.3
390.659	-711.5
390.857	687.26
391.056	642.21
391.254	-701.26
391.452	-566.09
391.65	801.95
391.849	421.03
392.047	-459.6
392.245	-283.47
392.442	228.52
392.64	478.37
392.838	-285.52
393.036	-523.09
393.233	306.34
393.431	316.58
393.629	-906.06
393.826	-484.17
394.023	230.57
394.221	-125.78
394.418	-428.88
394.615	-262.99
394.812	-109.4
395.01	679.07
395.207	-545.61
395.404	-672.59
395.601	863.39
395.797	347.3
395.994	-748.36
396.191	-551.76
396.388	183.46
396.584	580.77
396.781	-328.53
396.977	-78.68
397.174	646.3
397.37	-140.12
397.567	-494.41
397.763	-697.16
397.959	396.45
398.155	273.57
398.352	-486.22
398.548	-242.51
398.744	570.53
398.94	425.12
399.136	-772.94
399.331	-324.43
399.527	355.49
399.723	560.29
399.919	-406.35
400.114	-504.65
400.31	294.05
400.505	478.37
400.701	-584.52
400.896	-574.28
401.092	171.18
401.287	414.88
401.482	-750.41
401.678	-414.54
401.873	572.58
402.068	584.87
402.263	-443.21
402.458	-463.69
402.653	208.04
402.848	593.06
403.043	-441.17
403.237	-662.35
403.432	193.7
403.627	-123.73
403.822	-856.9
404.016	-656.2
404.211	136.36
404.405	545.95
404.6	-340.82
404.794	-211.79
404.989	486.56
405.183	208.04
405.377	-338.77
405.571	-181.07
405.766	459.94
405.96	388.26
406.154	-602.96
406.348	-398.16
406.542	515.23
406.736	593.06
406.93	-672.59
407.124	-426.83
407.318	240.81
407.511	359.59
407.705	-371.54
407.899	-662.35
408.092	478.37
408.286	406.69
408.48	-764.75
408.673	-648.01
408.867	109.74
409.06	406.69
409.253	-412.5
409.447	-437.07
409.64	650.4
409.833	412.84
410.026	-346.96
410.22	-465.74
410.413	666.78
410.606	474.28
410.799	-781.13
410.992	-523.09
411.185	296.1
411.378	961.69
411.571	-541.52
411.764	-504.65
411.956	588.96
412.149	461.99
412.342	-242.51
412.534	-478.03
412.727	660.64
412.92	418.98
413.112	-402.26
413.305	-228.18
413.497	775.33
413.69	574.63
413.882	-504.65
414.075	-316.24
414.267	421.03
414.459	179.37
414.652	-553.8
414.844	-516.94
415.036	414.88
415.228	748.7
415.42	-234.32
415.612	-547.66
415.804	930.97
415.997	562.34
416.188	-281.43
416.38	-306
416.572	70.83
416.764	672.93
416.956	-549.71
417.148	-533.33
417.34	255.14
417.531	-17.24
417.723	-574.28
417.915	-486.22
418.107	97.45
418.298	480.42
418.49	-447.31
418.681	-277.33
418.873	767.13
419.064	447.65
419.256	-353.1
419.447	-500.56
419.639	537.76
419.83	816.29
420.021	-314.19
420.213	-549.71
420.404	285.86
420.595	441.51
420.786	-291.66
420.978	-322.38
421.169	685.22
421.36	226.47
421.551	-500.56
421.742	-615.24
421.933	928.92
422.124	574.63
422.315	-480.08
422.506	-523.09
422.697	466.08
422.888	269.48
423.079	-111.44
423.27	-478.03
423.461	400.55
423.652	185.51
423.842	-553.8
424.033	-418.64
424.224	646.3
424.415	910.49
424.605	-332.62
424.796	-447.31
424.987	593.06
425.177	552.1
425.368	-656.2
425.558	-656.2
425.749	289.96
425.939	251.05
426.13	-78.68
426.32	-234.32
426.511	160.94
426.701	201.9
426.892	-453.45
427.082	-521.04
427.272	171.18
427.463	404.64
427.653	-381.78
427.843	-340.82
428.034	855.2
428.224	502.95
428.414	-562
428.604	-381.78
428.795	543.91
428.985	650.4
429.175	-205.65
429.365	-172.88
429.555	447.65
429.745	373.92
429.935	-447.31
430.126	-322.38
430.316	631.97
430.506	740.51
430.696	-430.93
430.886	-185.17
431.076	601.25
431.266	384.16
431.456	-52.05
431.645	-422.73
431.835	224.42
432.025	474.28
432.215	-432.97
432.405	-205.65
432.595	531.62
432.785	328.87
432.975	-469.84
433.164	-600.91
433.354	234.66
433.544	494.76
433.734	-594.76
433.923	-244.56
434.113	318.63
434.303	396.45
434.493	-228.18
434.682	-320.34
434.872	687.26
435.062	3.24
435.251	-418.64
435.441	-400.21
435.631	838.81
435.82	404.64
436.01	-521.04
436.2	-346.96
436.389	347.3
436.579	933.02
436.768	-45.91
436.958	-62.29
437.147	429.22
437.337	699.55
437.527	-197.46
437.716	-346.96
437.906	842.91
438.095	492.71
438.285	-340.82
438.474	-144.21
438.664	826.53
438.853	601.25
439.043	5.29
439.232	-404.3
439.422	709.79
439.611	662.69
439.8	-349.01
439.99	48.3
440.179	707.74
440.369	1062.04
440.558	-457.55
440.748	-215.89
440.937	504.99
441.126	294.05
441.316	-11.09
441.505	-250.71
441.695	844.96
441.884	1236.12
442.073	-148.31
442.263	-322.38
442.452	507.04
442.642	826.53
442.831	-189.27
443.02	158.89
443.21	994.46
443.399	1569.94
443.588	-70.48
443.778	-13.14
443.967	1397.91
444.156	822.43
444.346	-160.59
444.535	-201.55
444.725	1336.47
444.914	898.2
445.103	-131.92
445.293	40.11
445.482	1342.61
445.671	957.6
445.861	167.08
446.05	197.8
446.239	1158.3
446.429	634.02
446.618	-95.06
446.807	355.49
446.997	1129.63
447.186	1121.43
447.376	167.08
447.565	316.58
447.754	1485.97
447.944	1469.59
448.133	236.71
448.322	-4.95
448.512	920.73
448.701	1733.78
448.891	212.14
449.08	410.79
449.269	642.21
449.459	883.87
449.648	185.51
449.838	224.42
450.027	914.59
450.217	814.24
450.406	-13.14
450.595	449.7
450.785	1350.81
450.974	1299.61
451.164	76.97
451.353	459.94
451.543	1176.73
451.732	1494.16
451.922	175.27
452.111	304.29
452.301	797.85
452.49	740.51
452.68	-33.62
452.869	570.53
453.059	879.77
453.249	1387.67
453.438	-176.98
453.628	388.26
453.817	1168.54
454.007	978.08
454.197	-50
454.386	337.06
454.576	1528.98
454.765	1348.76
454.955	298.15
455.145	60.59
455.334	1074.33
455.524	699.55
455.714	300.2
455.904	44.2
456.093	1752.21
456.283	1150.11
456.473	101.55
456.663	64.68
456.852	1084.57
457.042	1113.24
457.232	144.55
457.422	734.37
457.612	1131.67
457.802	1461.4
457.991	-152.4
458.181	31.91
458.371	1178.78
458.561	1121.43
458.751	58.54
458.941	-35.67
459.131	791.71
459.321	746.66
459.511	326.82
459.701	152.74
459.891	1025.18
460.081	511.14
460.271	40.11
460.461	-90.96
460.651	1653.91
460.841	1496.21
461.032	-21.33
461.222	50.35
461.412	939.16
461.602	1711.25
461.792	-342.86
461.983	-187.22
462.173	953.5
462.363	1610.9
462.554	81.07
462.744	-39.76
462.934	1162.39
463.125	1035.42
463.315	-168.79
463.505	107.69
463.696	1137.82
463.886	674.98
464.077	-95.06
464.267	-95.06
464.458	1363.09
464.648	601.25
464.839	273.57
465.03	36.01
465.22	574.63
465.411	1113.24
465.601	-50
465.792	31.91
465.983	707.74
466.174	1072.28
466.364	-314.19
466.555	36.01
466.746	1240.22
466.937	769.18
467.128	-33.62
467.319	81.07
467.51	1184.92
467.701	1807.5
467.891	15.53
468.082	-103.25
468.274	881.82
468.465	404.64
468.656	191.66
468.847	-246.61
469.038	568.48
469.229	709.79
469.42	89.26
469.612	-127.83
469.803	1012.89
469.994	1094.81
470.185	15.53
470.377	-242.51
470.568	853.15
470.76	953.5
470.951	-54.1
471.142	187.56
471.334	1113.24
471.526	980.12
471.717	171.18
471.909	-189.27
472.1	793.76
472.292	873.63
472.484	-283.47
472.675	-62.29
472.867	836.77
473.059	1289.37
473.251	27.82
473.443	-45.91
473.635	928.92
473.826	1105.05
474.018	-209.75
474.21	31.91
474.402	978.08
474.595	1256.6
474.787	-0.85
474.979	111.78
475.171	617.63
475.363	314.53
475.555	-336.72
475.748	-37.72
475.94	1062.04
476.132	746.66
476.325	-148.31
476.517	406.69
476.71	1676.43
476.902	674.98
477.095	-90.96
477.287	162.98
477.48	1174.68
477.673	857.25
477.865	50.35
478.058	-72.53
478.251	1086.62
478.444	1373.33
478.636	117.93
478.829	-115.54
479.022	961.69
479.215	1256.6
479.408	236.71
479.601	470.18
479.794	535.71
479.988	767.13
480.181	322.73
480.374	93.35
480.567	1203.35
480.76	1608.85
480.954	197.8
481.147	-209.75
481.341	797.85
481.534	810.14
481.728	152.74
481.921	300.2
482.115	1277.08
482.308	1547.41
482.502	-11.09
482.696	111.78
482.89	1744.02
483.084	1229.98
483.277	177.32
483.471	341.16
483.665	1436.82
483.859	2321.54
484.053	-140.12
484.247	-45.91
484.442	1121.43
484.636	1111.19
484.83	101.55
485.024	294.05
485.219	1051.8
485.413	957.6
485.608	224.42
485.802	404.64
485.997	1606.8
486.191	1150.11
486.386	322.73
486.58	359.59
486.775	1375.38
486.97	1582.23
487.165	347.3
487.36	472.23
487.555	1346.71
487.75	1207.45
487.945	421.03
488.14	197.8
488.335	1027.23
488.53	1008.8
488.725	363.69
488.92	474.28
489.116	2040.97
489.311	1531.03
489.507	363.69
489.702	1006.75
489.898	1989.77
490.093	1076.38
490.289	906.4
490.485	685.22
490.68	1096.86
490.876	1928.33
491.072	595.11
491.268	773.28
491.464	2051.21
491.66	1717.39
491.856	695.46
492.052	1141.91
492.248	1907.85
492.445	1756.3
492.641	580.77
492.837	683.17
493.034	2026.64
493.23	2378.89
493.427	1297.56
493.623	652.45
493.82	1899.66
494.017	2389.13
494.214	900.25
494.41	765.09
494.607	2079.88
494.804	1666.19
495.001	1207.45
495.198	1094.81
495.395	2239.62
495.593	2342.02
495.79	1072.28
495.987	1066.14
496.184	1506.45
496.382	2245.77
496.579	1262.74
496.777	1309.85
496.974	2917.5
497.172	2567.3
497.37	1506.45
497.568	1189.02
497.766	3169.4
497.963	2391.17
498.161	1379.48
498.359	1580.18
498.558	3069.05
498.756	2944.13
498.954	1397.91
499.152	1862.8
499.351	2937.98
499.549	2772.1
499.747	1627.28
499.946	1817.74
500.145	2747.52
500.343	2585.73
500.542	1776.78
500.741	1969.29
500.94	3019.9
501.139	3361.91
501.338	2012.3
501.537	2512
501.736	3615.86
501.935	3275.9
502.134	2034.83
502.334	2120.84
502.533	3619.96
502.733	3523.7
502.932	2501.76
503.132	2403.46
503.331	3480.69
503.531	3759.22
503.731	2608.26
503.931	2608.26
504.131	3394.68
504.331	3957.87
504.531	2702.47
504.731	3026.04
504.931	3929.2
505.132	3869.81
505.332	2997.37
505.532	2888.83
505.733	4197.48
505.933	4709.47
506.134	3157.11
506.335	3064.96
506.536	3847.28
506.736	4748.39
506.937	3372.15
507.138	3366.01
507.34	5014.62
507.541	4525.16
507.742	3814.51
507.943	3441.78
508.145	4623.46
508.346	4019.31
508.548	3421.3
508.749	3587.19
508.951	4373.61
509.153	4660.32
509.354	3921.01
509.556	3984.49
509.758	5143.64
509.96	4480.1
510.163	4301.93
510.365	4203.63
510.567	4938.85
510.769	4942.94
510.972	4148.33
511.174	4525.16
511.377	4893.79
511.58	6218.83
511.782	4336.74
511.985	4336.74
512.188	6132.81
512.391	5755.99
512.594	4414.57
512.797	4600.93
513.001	5796.95
513.204	6343.75
513.407	4660.32
513.611	4947.04
513.814	5979.22
514.018	6083.66
514.222	5024.86
514.425	4985.95
514.629	6081.61
514.833	5999.7
515.037	5137.5
515.241	4883.55
515.445	5827.67
515.65	5794.9
515.854	5241.95
516.059	5319.77
516.263	6251.6
516.468	6353.99
516.672	5370.97
516.877	5262.43
517.082	5885.01
517.287	6548.55
517.492	5811.28
517.697	5399.64
517.902	6433.86
518.107	6263.88
518.313	5606.49
518.518	5633.11
518.724	7113.79
518.929	6566.98
519.135	5917.78
519.341	5356.63
519.547	6896.71
519.753	6865.99
519.959	5657.68
520.165	5770.32
520.371	6952
520.577	7543.86
520.784	5657.68
520.99	6175.82
521.197	7107.65
521.404	7113.79
521.61	5608.53
521.817	5858.39
522.024	7461.94
522.231	6646.85
522.438	5592.15
522.645	6343.75
522.853	6952
523.06	7285.82
523.268	6161.48
523.475	6143.05
523.683	7269.44
523.891	7345.21
524.098	5803.09
524.306	6229.07
524.514	7126.08
524.722	7091.26
524.931	6304.84
525.139	6188.11
525.347	6683.72
525.556	7226.43
525.764	6290.51
525.973	6437.96
526.182	7396.41
526.391	7007.3
526.6	6190.16
526.809	6440.01
527.018	7257.15
527.227	7584.82
527.436	6511.69
527.646	6308.94
527.855	7562.3
528.065	7279.68
528.275	6192.2
528.484	6368.33
528.694	7310.4
528.904	7511.1
529.114	6360.14
529.325	6450.25
529.535	6822.98
529.745	7502.9
529.956	6130.77
530.166	6380.62
530.377	7437.37
530.588	7795.76
530.799	6689.86
531.01	6177.87
531.221	7908.4
531.432	7795.76
531.643	6716.48
531.855	6921.28
532.066	7810.1
532.278	7558.2
532.489	6650.95
532.701	6335.56
532.913	7820.34
533.125	7500.86
533.337	6175.82
533.549	6308.94
533.762	7728.18
533.974	6984.77
534.186	6212.68
534.399	6736.96
534.612	7820.34
534.825	7486.52
535.037	6628.42
535.25	6618.18
535.464	7312.44
535.677	7722.04
535.89	6114.38
536.104	6747.2
536.317	7498.81
536.531	7603.25
536.744	6589.51
536.958	6538.31
537.172	7302.2
537.386	7171.13
537.6	6452.3
537.815	6560.84
538.029	7693.37
538.244	7828.53
538.458	6323.27
538.673	6374.47
538.888	7808.05
539.103	7842.87
539.318	6822.98
539.533	6149.2
539.748	7248.96
539.963	6870.08
540.179	6175.82
540.394	6083.66
540.61	6888.51
540.826	7285.82
541.042	6075.47
541.258	6315.08
541.474	7711.8
541.69	7316.54
541.906	6335.56
542.123	6206.54
542.339	7416.89
542.556	6982.72
542.773	6138.96
542.99	6356.04
543.207	7062.59
543.424	6868.03
543.641	6401.1
543.858	6589.51
544.076	6915.14
544.293	6902.85
544.511	6065.23
544.729	6233.16
544.947	7035.97
545.165	7009.34
545.383	6048.85
545.601	6147.15
545.819	7220.28
546.038	6847.55
546.256	6165.58
546.475	6095.95
546.694	7918.64
546.913	7470.14
547.132	6640.71
547.351	6048.85
547.57	6462.54
547.79	6653
548.009	6009.93
548.229	5885.01
548.449	6794.31
548.668	7384.12
548.888	6077.52
549.109	6089.81
549.329	7316.54
549.549	7248.96
549.77	6067.28
549.99	6112.33
550.211	7109.69
550.432	7648.31
550.653	5911.63
550.874	6171.72
551.095	7738.42
551.316	6947.9
551.538	5848.15
551.759	6224.97
551.981	6908.99
552.203	7189.56
552.424	5858.39
552.646	6282.31
552.869	6863.94
553.091	6857.79
553.313	6093.9
553.536	5919.82
553.758	7091.26
553.981	6708.29
554.204	5815.38
554.427	6014.03
554.65	7089.21
554.873	6392.91
555.097	5493.85
555.32	5796.95
555.544	7136.32
555.768	6992.96
555.992	5680.21
556.216	5637.2
556.44	6263.88
556.664	7197.76
556.888	6321.23
557.113	5583.96
557.337	7310.4
557.562	7105.6
557.787	5524.57
558.012	5889.1
558.237	6714.44
558.462	6642.76
558.688	6024.27
558.913	5745.75
559.139	6224.97
559.365	6939.71
559.591	5731.41
559.817	5698.64
560.043	6966.34
560.269	6966.34
560.496	6130.77
560.722	5786.71
560.949	7203.9
561.176	6147.15
561.403	5600.34
561.63	5983.31
561.857	5901.39
562.084	6098
562.312	5516.37
562.539	5545.05
562.767	7236.67
562.995	6315.08
563.223	5557.33
563.451	5712.98
563.679	6337.61
563.908	6419.53
564.136	5618.77
564.365	5817.43
564.594	5987.41
564.823	7519.29
565.052	5575.77
565.281	5246.04
565.51	6591.56
565.74	6132.81
565.969	5166.17
566.199	5436.5
566.429	6501.45
566.659	6454.34
566.889	5168.22
567.119	5248.09
567.35	6878.27
567.58	6784.07
567.811	5528.66
568.042	5387.35
568.273	5950.54
568.504	6360.14
568.735	5274.71
568.966	5258.33
569.198	6173.77
569.43	6507.59
569.661	5438.55
569.893	5420.12
570.125	6601.8
570.358	6542.41
570.59	5090.4
570.822	5243.99
571.055	6411.34
571.288	6425.67
571.521	5049.44
571.754	5135.45
571.987	6394.95
572.22	6052.94
572.454	5235.8
572.687	5059.68
572.921	5409.88
573.155	5762.13
573.389	5540.95
573.623	5272.67
573.858	5639.25
574.092	6167.63
574.327	5139.55
574.561	5338.2
574.796	5575.77
575.031	5909.58
575.266	4861.02
575.502	4869.22
575.737	6044.75
575.973	5573.72
576.209	4766.82
576.445	4840.54
576.681	5540.95
576.917	5794.9
577.153	4666.47
577.39	4742.24
577.626	5712.98
577.863	5549.14
578.1	4369.51
578.337	4770.91
578.574	5172.32
578.812	5946.45
579.049	4721.76
579.287	4459.62
579.525	5622.87
579.763	5594.2
580.001	4377.7
580.239	4476.01
580.478	5944.4
580.716	5373.02
580.955	4645.99
581.194	4602.98
581.433	5516.37
581.672	5268.57
581.911	4271.21
582.151	4258.92
582.39	4955.23
582.63	5766.23
582.87	4240.49
583.11	4119.66
583.35	4781.15
583.591	5078.11
583.831	4322.41
584.072	4689
584.313	5131.36
584.554	4992.09
584.795	4217.96
585.036	4389.99
585.277	5700.69
585.519	5383.26
585.761	3857.52
586.003	3970.16
586.245	5016.67
586.487	5618.77
586.729	4140.14
586.972	3972.21
587.215	5819.47
587.457	4312.17
587.7	4181.1
587.944	3982.45
588.187	4697.19
588.43	4803.68
588.674	3761.27
588.918	3662.96
589.162	5043.29
589.406	4605.03
589.65	3624.05
589.894	4283.5
590.139	4830.3
590.384	5313.63
590.629	3554.42
590.874	3779.7
591.119	4050.03
591.364	4689
591.61	3552.37
591.855	3394.68
592.101	5080.16
592.347	4654.18
592.593	3574.9
592.84	3847.28
593.086	5172.32
593.333	4109.42
593.58	3376.25
593.827	3363.96
594.074	4254.83
594.321	4189.29
594.568	3296.38
594.816	3103.87
595.064	4303.98
595.312	4246.63
595.56	3282.04
595.808	3476.6
596.057	4521.06
596.305	3986.54
596.554	2968.7
596.803	3271.8
597.052	4519.01
597.301	4701.28
597.551	2940.03
597.8	3441.78
598.05	4236.39
598.3	3972.21
598.55	2976.89
598.8	2950.27
599.051	3652.72
599.301	3634.29
599.552	2686.08
599.803	3273.85
600.054	4154.48
600.305	3861.62
600.556	3345.53
600.808	3007.61
601.06	3789.94
601.312	4095.08
601.564	2911.36
601.816	2770.05
602.068	4396.14
602.321	4217.96
602.574	3011.71
602.827	2659.46
603.08	3787.89
603.333	3849.33
603.587	2698.37
603.84	2921.6
604.094	3972.21
604.348	3282.04
604.602	2583.68
604.856	2739.33
605.111	3753.07
605.365	3935.34
605.62	2858.11
605.875	2567.3
606.13	3699.83
606.386	3605.62
606.641	2563.2
606.897	2514.05
607.153	3357.82
607.409	3980.4
607.665	2395.27
607.921	2337.93
608.178	3333.24
608.435	3570.8
608.692	2528.39
608.949	2575.49
609.206	3841.14
609.463	3507.32
609.721	2600.07
609.979	2643.07
610.237	3333.24
610.495	3912.81
610.753	2874.49
611.012	2456.71
611.27	3728.5
611.529	3492.98
611.788	2606.21
612.047	2305.16
612.307	2976.89
612.566	3552.37
612.826	2303.11
613.086	2516.1
613.346	2813.06
613.606	3462.26
613.867	2290.82
614.127	2624.64
614.388	2806.91
614.649	3546.23
614.91	2157.71
615.172	2591.88
615.433	3058.81
615.695	3081.34
615.957	2337.93
616.219	2325.64
616.481	3527.8
616.743	2976.89
617.006	1948.81
617.269	2155.66
617.532	3343.48
617.795	3116.16
618.058	2194.57
618.322	2305.16
618.586	3269.75
618.849	2804.86
619.114	2389.13
619.378	1879.18
619.642	3193.98
619.907	3353.72
620.172	2112.65
620.437	2192.52
620.702	3310.71
620.967	2796.67
621.233	2040.97
621.499	1909.9
621.765	2817.15
622.031	3179.64
622.297	1887.37
622.564	1965.2
622.83	2878.59
623.097	3558.52
623.364	2075.79
623.631	2436.23
623.899	3202.17
624.166	3067
624.434	1819.79
624.702	1651.86
624.97	3146.87
625.239	2718.85
625.507	1870.99
625.776	2094.22
626.045	2710.66
626.314	2923.65
626.584	1862.8
626.853	1830.03
627.123	2751.62
627.393	2112.65
627.663	1864.85
627.933	1821.84
628.204	3009.66
628.474	2847.87
628.745	1651.86
629.016	2100.36
629.287	2704.51
629.559	2423.94
629.83	1461.4
630.102	1692.82
630.374	2358.41
630.646	3267.7
630.919	1739.92
631.191	2079.88
631.464	2638.98
631.737	2260.1
632.01	1694.86
632.284	1694.86
632.557	3120.25
632.831	2919.55
633.105	1459.35
633.379	1690.77
633.654	2045.07
633.928	2604.16
634.203	1649.81
634.478	1485.97
634.753	2634.88
635.028	2798.72
635.304	1774.74
635.58	1481.88
635.856	2591.88
636.132	2260.1
636.408	1389.72
636.685	1492.12
636.961	2407.56
637.238	2339.97
637.515	1485.97
637.793	1453.2
638.07	2661.51
638.348	2305.16
638.626	1567.89
638.904	1733.78
639.182	1860.75
639.461	1813.65
639.74	1522.84
640.019	1510.55
640.298	1674.39
640.577	2147.47
640.857	1254.55
641.136	1219.74
641.416	2100.36
641.696	2737.28
641.977	1436.82
642.257	1485.97
642.538	2284.68
642.819	2747.52
643.1	1225.88
643.382	955.55
643.663	2452.61
643.945	2194.57
644.227	1160.34
644.509	1072.28
644.792	2655.36
645.074	2239.62
645.357	1133.72
645.64	914.59
645.923	2071.69
646.207	2219.14
646.49	1254.55
646.774	986.27
647.058	1965.2
647.342	2194.57
647.627	973.98
647.911	937.12
648.196	2469
648.481	2489.48
648.767	969.88
649.052	1203.35
649.338	1715.34
649.624	1789.07
649.91	865.44
650.196	933.02
650.483	2294.92
650.77	2335.88
651.057	1420.44
651.344	1201.3
651.631	1932.43
651.919	1641.62
652.207	937.12
652.495	1135.77
652.783	2092.17
653.071	2002.06
653.36	789.66
653.649	890.01
653.938	1819.79
654.227	2129.03
654.517	1236.12
654.806	916.64
655.096	1524.88
655.387	2108.55
655.677	1004.7
655.968	740.51
656.258	1543.32
656.549	2034.83
656.841	1014.94
657.132	908.44
657.424	1664.15
657.716	1983.63
658.008	851.1
658.3	650.4
658.592	1848.46
658.885	2057.36
659.178	697.5
659.471	560.29
659.765	1373.33
660.058	1879.18
660.352	576.67
660.646	588.96
660.94	2323.59
661.235	1848.46
661.53	1062.04
661.824	484.52
662.12	1774.74
662.415	1092.76
662.711	617.63
663.006	791.71
663.302	1363.09
663.599	1125.53
663.895	507.04
664.192	842.91
664.489	2020.49
664.786	1934.48
665.083	453.8
665.381	521.38
665.678	1418.39
665.976	1731.73
666.275	392.36
666.573	674.98
666.872	1191.06
667.171	1637.52
667.47	300.2
667.769	267.43
668.069	1797.26
668.368	1723.54
668.668	238.76
668.969	289.96
669.269	1381.53
669.57	1111.19
669.871	488.61
670.172	543.91
670.473	1731.73
670.775	1817.74
671.077	294.05
671.379	466.08
671.681	1698.96
671.983	1424.53
672.286	249
672.589	380.07
672.892	1516.69
673.196	1389.72
673.499	251.05
673.803	308.39
674.107	1643.67
674.411	1356.95
674.716	525.47
675.021	539.81
675.326	1180.82
675.631	1617.04
675.936	122.02
676.242	242.85
676.548	992.41
676.854	1901.71
677.16	64.68
677.467	257.19
677.774	1334.42
678.081	1092.76
678.388	634.02
678.696	511.14
679.004	1526.93
679.312	1815.69
679.62	429.22
679.928	412.84
680.237	1555.6
680.546	752.8
680.855	380.07
681.164	165.03
681.474	1471.64
681.784	1395.86
682.094	302.25
682.404	105.64
682.715	1559.7
683.026	699.55
683.337	87.21
683.648	572.58
683.959	1684.62
684.271	1471.64
684.583	296.1
684.895	-50
685.208	1363.09
685.52	1445.01
685.833	363.69
686.146	81.07
686.46	1674.39
686.773	1264.79
687.087	363.69
687.401	-23.38
687.716	1225.88
688.03	1301.65
688.345	-144.21
688.66	273.57
688.975	1322.13
689.291	1428.63
689.607	634.02
689.923	197.8
690.239	1266.84
690.555	1504.4
690.872	107.69
691.189	-90.96
691.506	1158.3
691.824	1485.97
692.142	-31.57
692.459	107.69
692.778	916.64
693.096	1381.53
693.415	447.65
693.734	267.43
694.053	990.36
694.372	693.41
694.692	-152.4
695.012	185.51
695.332	863.39
695.652	1092.76
695.973	187.56
696.294	13.48
696.615	894.11
696.936	1457.3
697.258	-248.66
697.579	46.25
697.902	715.94
698.224	867.49
698.546	-25.43
698.869	-138.07
699.192	816.29
699.516	1455.25
699.839	-86.87
700.163	126.12
700.487	668.83
700.811	1672.34
701.136	-349.01
701.461	-29.52
701.786	1078.43
702.111	1485.97
702.436	-209.75
702.762	273.57
703.088	1307.8
703.415	1635.47
703.741	177.32
704.068	-78.68
704.395	765.09
704.722	1191.06
705.05	-68.44
705.377	-23.38
705.705	1166.49
706.034	976.03
706.362	-361.3
706.691	-312.14
707.02	1264.79
707.349	1084.57
707.679	109.74
708.009	-160.59
708.339	920.73
708.669	924.83
709	-119.64
709.33	-312.14
709.661	908.44
709.993	871.58
710.324	126.12
710.656	-99.16
710.988	1006.75
711.321	1268.89
711.653	-387.92
711.986	-50
712.319	441.51
712.652	1193.11
712.986	142.5
713.32	-185.17
713.654	1248.41
713.988	1275.03
714.323	-72.53
714.658	-84.82
714.993	892.06
715.328	695.46
715.664	9.39
716	60.59
716.336	1395.86
716.673	631.97
717.009	167.08
717.346	-15.19
717.683	1369.24
718.021	928.92
718.359	-199.51
718.697	54.44
719.035	769.18
719.373	613.54
719.712	72.87
720.051	-306
720.39	1117.34
720.73	842.91
721.07	-29.52
721.41	-109.4
721.75	1270.94
722.091	1121.43
722.432	-185.17
722.773	109.74
723.114	828.57
723.456	797.85
723.798	-142.16
724.14	-99.16
724.482	687.26
724.825	928.92
725.168	126.12
725.511	-117.59
725.855	824.48
726.198	625.83
726.542	-250.71
726.887	298.15
727.231	1090.71
727.576	490.66
727.921	-19.29
728.266	-365.39
728.612	760.99
728.958	1100.95
729.304	-193.36
729.651	275.62
729.997	562.34
730.344	732.32
730.691	-234.32
731.039	101.55
731.387	861.34
731.735	605.35
732.083	-103.25
732.431	40.11
732.78	572.58
733.129	27.82
733.479	-232.27
733.828	-60.24
734.178	724.13
734.528	218.28
734.879	3.24
735.23	-275.28
735.581	851.1
735.932	736.42
736.283	-119.64
736.635	-312.14
736.987	1119.39
737.34	1021.08
737.692	-396.11
738.045	-275.28
738.398	847.01
738.752	1014.94
739.105	-439.12
739.459	277.67
739.814	1029.27
740.168	1051.8
740.523	-357.2
740.878	-58.2
741.233	738.46
741.589	1072.28
741.945	-176.98
742.301	-160.59
742.657	1129.63
743.014	617.63
743.371	-217.94
743.728	380.07
744.086	773.28
744.444	584.87
744.802	-428.88
745.16	-283.47
745.519	900.25
745.878	566.43
746.237	-328.53
746.597	-88.92
746.956	1023.13
747.316	740.51
747.677	-367.44
748.037	-189.27
748.398	699.55
748.759	885.92
749.121	-27.48
749.482	44.2
749.844	535.71
750.207	279.72
750.569	-734.03
750.932	-43.86
751.295	1297.56
751.659	793.76
752.022	-396.11
752.386	203.94
752.751	752.8
753.115	300.2
753.48	-250.71
753.845	-158.55
754.21	748.7
754.576	580.77
754.942	-430.93
755.308	-37.72
755.675	494.76
756.041	1119.39
756.409	-459.6
756.776	-93.01
757.144	1277.08
757.511	924.83
757.88	-267.09
758.248	-537.42
758.617	128.17
758.986	806.05
759.355	-78.68
759.725	-150.36
760.095	310.44
760.465	996.51
760.836	-430.93
761.206	-283.47
761.577	980.12
761.949	289.96
762.32	-140.12
762.692	-494.41
763.065	451.75
763.437	304.29
763.81	-504.65
764.183	-185.17
764.556	1103
764.93	511.14
765.304	76.97
765.678	-117.59
766.053	619.68
766.428	646.3
766.803	-533.33
767.178	-406.35
767.554	68.78
767.93	388.26
768.306	-500.56
768.683	-430.93
769.06	930.97
769.437	636.06
769.814	-596.81
770.192	-422.73
770.57	552.1
770.948	1391.77
771.327	-140.12
771.706	-523.09
772.085	834.72
772.464	1016.99
772.844	-246.61
773.224	-584.52
773.605	177.32
773.985	472.23
774.366	-217.94
774.748	48.3
775.129	900.25
775.511	703.65
775.893	-373.58
776.276	-291.66
776.658	986.27
777.041	593.06
777.425	-660.3
777.808	-338.77
778.192	365.73
778.576	984.22
778.961	-699.21
779.346	-463.69
779.731	683.17
780.116	-21.33
780.502	-394.06
780.888	-375.63
781.274	627.87
781.661	353.45
782.048	-453.45
782.435	-525.13
782.823	406.69
783.21	625.83
783.598	-353.1
783.987	-410.45
784.376	859.29
784.765	339.11
785.154	-213.84
785.544	-443.21
785.933	627.87
786.324	302.25
786.714	-179.03
787.105	-566.09
787.496	586.91
787.888	314.53
788.279	-557.9
788.671	-566.09
789.064	486.56
789.456	691.36
789.849	-562
790.242	-674.64
790.636	257.19
791.03	707.74
791.424	-562
791.818	1103
792.213	754.85
792.608	550.05
793.004	-308.05
793.399	-772.94
793.795	543.91
794.192	388.26
794.588	-504.65
794.985	-719.69
795.382	599.2
795.78	371.88
796.178	-361.3
796.576	-494.41
796.974	1090.71
797.373	476.32
797.772	-580.43
798.172	-553.8
798.571	490.66
798.971	783.52
799.372	-420.69
799.772	-394.06
800.173	912.54
800.574	474.28
800.976	-478.03
801.378	-666.44
801.78	138.41
802.182	17.58
802.585	-392.02
802.988	-514.89
803.392	152.74
803.795	230.57
804.199	-549.71
804.604	-529.23
805.008	609.44
805.413	1076.38
805.819	-373.58
806.224	-643.92
806.63	484.52
807.036	689.31
807.443	-529.23
807.85	-301.9
808.257	558.24
808.664	453.8
809.072	-17.24
809.48	-242.51
809.889	777.37
810.297	679.07
810.706	-78.68
811.116	-521.04
811.526	294.05
811.936	406.69
812.346	-541.52
812.757	-453.45
813.167	445.6
813.579	244.9
813.99	-336.72
814.402	-625.48
814.814	1045.66
815.227	277.67
815.64	-701.26
816.053	-541.52
816.467	674.98
816.88	451.75
817.294	-287.57
817.709	-334.67
818.124	320.68
818.539	914.59
818.954	-387.92
819.37	-267.09
819.786	33.96
820.202	629.92
820.619	-820.04
821.036	-658.25
821.453	808.09
821.871	466.08
822.289	-557.9
822.707	-654.16
823.126	535.71
823.545	76.97
823.964	-449.36
824.384	-553.8
824.804	242.85
825.224	537.76
825.645	-179.03
826.065	-660.3
826.487	724.13
826.908	740.51
827.33	-416.59
827.752	-93.01
828.175	609.44
828.598	658.59
829.021	-222.03
829.444	210.09
829.868	523.43
830.292	175.27
830.717	-623.44
831.142	-600.91
831.567	224.42
831.992	484.52
832.418	-62.29
832.844	-635.72
833.27	482.47
833.697	314.53
834.124	-758.6
834.552	-766.79
834.979	928.92
835.408	416.93
835.836	-664.4
836.265	-467.79
836.694	232.62
837.123	625.83
837.553	-695.11
837.983	-738.12
838.413	588.96
838.844	617.63
839.275	-635.72
839.706	-238.42
840.138	1025.18
840.57	308.39
841.003	-510.8
841.435	-301.9
841.868	281.77
842.302	310.44
842.735	-357.2
843.169	-676.68
843.604	486.56
844.039	531.62
844.474	-652.11
844.909	-541.52
845.345	650.4
845.781	531.62
846.217	-568.14
846.654	-670.54
847.091	693.41
847.528	269.48
847.966	-635.72
848.404	-500.56
848.842	1049.75
849.281	-181.07
849.72	-432.97
850.16	-676.68
850.599	240.81
851.039	191.66
851.48	-252.75
851.921	-523.09
852.362	597.15
852.803	791.71
853.245	-881.48
853.687	-504.65
854.129	627.87
854.572	228.52
855.015	-713.55
855.459	-535.37
855.903	109.74
856.347	597.15
856.791	-373.58
857.236	-549.71
857.681	1019.04
858.127	1305.75
858.572	-275.28
859.019	-537.42
859.465	695.46
859.912	480.42
860.359	-731.98
860.807	-637.77
861.255	195.75
861.703	662.69
862.151	-469.84
862.6	19.63
863.05	636.06
863.499	289.96
863.949	-469.84
864.4	-758.6
864.85	945.31
865.301	812.19
865.752	-537.42
866.204	-639.82
866.656	240.81
867.109	769.18
867.561	-547.66
868.014	-273.23
868.468	666.78
868.921	738.46
869.376	-426.83
869.83	-568.14
870.285	388.26
870.74	150.7
871.195	-502.61
871.651	-420.69
872.107	904.35
872.564	310.44
873.021	-680.78
873.478	-750.41
873.936	603.3
874.394	730.27
874.852	-602.96
875.31	-404.3
875.769	378.02
876.229	992.41
876.688	-301.9
877.148	-492.37
877.609	244.9
878.069	158.89
878.531	-207.7
878.992	-721.74
879.454	421.03
879.916	382.12
880.378	-506.7
880.841	-512.85
881.304	-74.58
881.768	52.39
882.232	-723.79
882.696	-398.16
883.161	95.4
883.626	429.22
884.091	-420.69
884.557	-504.65
885.023	134.31
885.489	720.03
885.956	-803.66
886.423	-621.39
886.89	72.87
887.358	525.47
887.826	-541.52
888.295	-451.41
888.763	107.69
889.233	1105.05
889.702	-467.79
890.172	-590.67
890.642	283.81
891.113	269.48
891.584	-197.46
892.055	-557.9
892.527	668.83
892.999	711.84
893.472	-598.86
893.944	-293.71
894.417	359.59
894.891	117.93
895.365	-396.11
895.839	-394.06
896.314	529.57
896.789	-330.58
897.264	-539.47
897.74	-723.79
898.216	849.05
898.692	650.4
899.169	-568.14
899.646	-584.52
900.123	531.62
900.601	916.64
901.079	-684.87
901.558	-406.35
902.037	744.61
902.516	445.6
902.996	-727.88
903.476	-684.87
903.956	240.81
904.437	642.21
904.918	-666.44
905.399	-781.13
905.881	511.14
906.363	523.43
906.846	-709.45
907.329	-500.56
907.812	-19.29
908.296	488.61
908.78	-660.3
909.264	-717.64
909.749	136.36
910.234	781.47
910.719	-654.16
911.205	-267.09
911.691	-176.98
912.178	494.76
912.665	-148.31
913.152	-633.68
913.64	167.08
914.128	582.82
914.616	-553.8
915.105	-482.13
915.594	455.84
916.084	996.51
916.574	-471.89
917.064	-738.12
917.555	-17.24
918.046	576.67
918.537	-201.55
919.029	-1006.41
919.521	326.82
920.013	793.76
920.506	-385.87
920.999	-746.31
921.493	695.46
921.987	152.74
922.481	-385.87
922.976	-594.76
923.471	298.15
923.967	392.36
924.462	-514.89
924.959	-537.42
925.455	423.08
925.952	421.03
926.449	-629.58
926.947	-594.76
927.445	386.21
927.944	310.44
928.442	-877.38
928.942	-791.37
929.441	652.45
929.941	25.77
930.442	-666.44
930.942	-566.09
931.443	617.63
931.945	31.91
932.447	-736.07
932.949	-510.8
933.451	193.7
933.954	337.06
934.458	-451.41
934.961	-643.92
935.465	197.8
935.97	3.24
936.475	-428.88
936.98	-682.83
937.486	-168.79
937.992	189.61
938.498	-623.44
939.005	-521.04
939.512	187.56
940.019	474.28
940.527	-508.75
941.035	-318.29
941.544	494.76
942.053	388.26
942.562	-224.08
943.072	-252.75
943.582	621.73
944.093	283.81
944.604	-797.51
945.115	-656.2
945.627	758.94
946.139	945.31
946.651	-527.18
947.164	-461.65
947.677	461.99
948.191	359.59
948.705	-766.79
949.219	-674.64
949.734	222.38
950.249	578.72
950.765	-578.38
951.281	-648.01
951.797	1436.82
952.314	646.3
952.831	-676.68
953.348	-861
953.866	586.91
954.384	171.18
954.903	-639.82
955.422	-805.71
955.941	257.19
956.461	283.81
956.981	-668.49
957.502	-510.8
958.023	543.91
958.544	470.18
959.066	-494.41
959.588	-756.55
960.11	-41.81
960.633	730.27
961.156	-570.19
961.68	-549.71
962.204	711.84
962.729	-52.05
963.253	-602.96
963.779	-7
964.304	472.23
964.83	824.48
965.357	-774.99
965.883	-506.7
966.411	437.41
966.938	578.72
967.466	-488.27
967.994	-779.08
968.523	132.26
969.052	806.05
969.582	-578.38
970.112	-672.59
970.642	126.12
971.173	781.47
971.704	-615.24
972.235	-430.93
972.767	478.37
973.3	218.28
973.832	-381.78
974.365	-897.86
974.899	373.92
975.433	531.62
975.967	-742.22
976.502	-387.92
977.037	404.64
977.572	810.14
978.108	-731.98
978.644	-908.1
979.181	1078.43
979.718	634.02
980.255	-969.54
980.793	-480.08
981.331	-125.78
981.87	691.36
982.409	-553.8
982.948	-412.5
983.488	302.25
984.028	799.9
984.569	-580.43
985.11	-566.09
985.651	670.88
986.193	509.09
986.735	-762.7
987.278	-684.87
987.821	-123.73
988.364	253.09
988.908	-420.69
989.452	-742.22
989.997	-447.31
990.542	484.52
991.088	-688.97
991.633	-242.51
992.18	228.52
992.726	-127.83
993.273	-557.9
993.821	-449.36
994.369	292.01
994.917	709.79
995.465	-752.46
996.014	-824.14
996.564	634.02
997.114	33.96
997.664	-310.1
998.215	-738.12
998.766	453.8
999.317	-156.5
999.869	-484.17
1000.421	-740.17
1000.974	634.02
1001.527	666.78
1002.081	-674.64
1002.635	-328.53
1003.189	449.7
1003.744	711.84
1004.299	-848.71
1004.854	-648.01
1005.41	773.28
1005.967	195.75
1006.523	-439.12
1007.081	-439.12
1007.638	500.9
1008.196	461.99
1008.755	-799.56
1009.313	-443.21
1009.873	552.1
1010.432	-29.52
1010.992	-338.77
1011.553	-502.61
1012.114	423.08
1012.675	-43.86
1013.237	-418.64
1013.799	-222.03
1014.361	595.11
1014.924	-19.29
1015.487	-787.27
1016.051	-488.27
1016.615	744.61
1017.18	394.4
1017.745	-643.92
1018.31	-326.48
1018.876	920.73
1019.442	369.83
1020.009	-531.28
1020.576	-813.9
1021.143	330.92
1021.711	695.46
1022.28	-553.8
1022.848	-623.44
1023.417	715.94
1023.987	373.92
1024.557	-701.26
1025.127	-709.45
1025.698	-107.35
1026.269	-25.43
1026.841	-797.51
1027.413	-424.78
1027.985	203.94
1028.558	316.58
1029.131	-701.26
1029.705	-424.78
1030.279	308.39
1030.854	437.41
1031.429	-746.31
1032.004	-176.98
1032.58	599.2
1033.156	-13.14
1033.733	-736.07
1034.31	-676.68
1034.887	584.87
1035.465	646.3
1036.043	-1028.93
1036.622	-592.72
1037.201	287.91
1037.781	693.41
1038.361	-734.03
1038.941	-840.52
1039.522	445.6
1040.103	808.09
1040.685	-672.59
1041.267	-316.24
1041.85	1123.48
1042.433	537.76
1043.016	-664.4
1043.6	-570.19
1044.184	-250.71
1044.769	523.43
1045.354	-518.99
1045.939	-731.98
1046.525	249
1047.111	429.22
1047.698	-422.73
1048.285	-795.47
1048.873	496.8
1049.461	-35.67
1050.049	-668.49
1050.638	-717.64
1051.228	19.63
1051.817	799.9
1052.407	-676.68
1052.998	-344.91
1053.589	543.91
1054.18	603.3
1054.772	-934.73
1055.365	-752.46
1055.957	511.14
1056.55	175.27
1057.144	-553.8
1057.738	-734.03
1058.333	158.89
1058.927	130.22
1059.523	-697.16
1060.118	-729.93
1060.715	64.68
1061.311	593.06
1061.908	-725.83
1062.506	-373.58
1063.103	513.19
1063.702	46.25
1064.3	-904.01
1064.9	-760.65
1065.499	978.08
1066.099	19.63
1066.7	-594.76
1067.301	-861
1067.902	758.94
1068.504	715.94
1069.106	-365.39
1069.709	-455.5
1070.312	748.7
1070.915	451.75
1071.519	-709.45
1072.123	-445.26
1072.728	623.78
1073.333	326.82
1073.939	-248.66
1074.545	-516.94
1075.152	564.39
1075.759	62.63
1076.366	-672.59
1076.974	-349.01
1077.582	339.11
1078.191	797.85
1078.8	-451.41
1079.41	-901.96
1080.02	404.64
1080.63	382.12
1081.241	-101.2
1081.852	-852.81
1082.464	400.55
1083.076	494.76
1083.689	-623.44
1084.302	-684.87
1084.915	851.1
1085.529	570.53
1086.144	-660.3
1086.759	-521.04
1087.374	119.98
1087.99	275.62
1088.606	-713.55
1089.222	-617.29
1089.839	588.96
1090.457	265.38
1091.075	-564.04
1091.693	-930.63
1092.312	494.76
1092.931	896.16
1093.551	-699.21
1094.171	-303.95
1094.792	427.17
1095.413	142.5
1096.034	-631.63
1096.656	-551.76
1097.278	638.11
1097.901	304.29
1098.524	-688.97
1099.148	-361.3
1099.772	949.4
1100.397	339.11
1101.022	-789.32
1101.647	-633.68
1102.273	484.52
1102.899	654.5
1103.526	-938.82
1104.153	-492.37
1104.781	627.87
1105.409	730.27
1106.038	-789.32
1106.667	-867.14
1107.296	122.02
1107.926	236.71
1108.556	-150.36
1109.187	-516.94
1109.818	404.64
1110.45	662.69
1111.082	-551.76
1111.715	-705.35
1112.348	314.53
1112.981	308.39
1113.615	-353.1
1114.25	-566.09
1114.885	165.03
1115.52	265.38
1116.156	-754.51
1116.792	-684.87
1117.428	560.29
1118.066	105.64
1118.703	-340.82
1119.341	-504.65
1119.98	611.49
1120.618	814.24
1121.258	-734.03
1121.898	-734.03
1122.538	412.84
1123.179	-189.27
1123.82	-570.19
1124.461	-488.27
1125.103	615.59
1125.746	240.81
1126.389	-437.07
1127.032	-795.47
1127.676	548
1128.32	824.48
1128.965	-545.61
1129.61	-373.58
1130.256	302.25
1130.902	695.46
1131.549	-535.37
1132.196	-615.24
1132.844	677.02
1133.491	814.24
1134.14	-602.96
1134.789	-621.39
1135.438	1035.42
1136.088	236.71
1136.738	-752.46
1137.389	-770.89
1138.04	480.42
1138.692	957.6
1139.344	-650.06
1139.996	-580.43
1140.649	550.05
1141.303	683.17
1141.957	-500.56
1142.611	-537.42
1143.266	472.23
1143.921	488.61
1144.577	-643.92
1145.233	-633.68
1145.89	146.6
1146.547	578.72
1147.205	-893.77
1147.863	-562
1148.521	404.64
1149.18	548
1149.84	-813.9
1150.5	-676.68
1151.16	289.96
1151.821	699.55
1152.482	-590.67
1153.144	-107.35
1153.806	468.13
1154.469	509.09
1155.132	-797.51
1155.796	-602.96
1156.46	683.17
1157.124	978.08
1157.789	-783.18
1158.455	-615.24
1159.121	402.6
1159.787	-19.29
1160.454	-510.8
1161.121	-492.37
1161.789	240.81
1162.457	603.3
1163.126	-494.41
1163.795	-541.52
1164.465	359.59
1165.135	267.43
1165.806	-594.76
1166.477	-471.89
1167.148	-254.8
1167.82	412.84
1168.493	-865.1
1169.166	-363.34
1169.839	72.87
1170.513	464.04
1171.187	-721.74
1171.862	-682.83
1172.537	353.45
1173.213	353.45
1173.889	-684.87
1174.566	-582.48
1175.243	756.9
1175.921	320.68
1176.599	-402.26
1177.278	-385.87
1177.957	99.5
1178.636	822.43
1179.316	-420.69
1179.997	-813.9
1180.678	619.68
1181.359	765.09
1182.041	-783.18
1182.723	-684.87
1183.406	648.35
1184.089	89.26
1184.773	-766.79
1185.457	-758.6
1186.142	175.27
1186.827	1330.33
1187.513	-750.41
1188.199	-262.99
1188.886	146.6
1189.573	351.4
1190.26	-598.86
1190.948	-590.67
1191.637	42.15
1192.326	308.39
1193.015	-719.69
1193.705	-797.51
1194.396	83.11
1195.087	265.38
1195.778	-426.83
1196.47	-738.12
1197.162	382.12
1197.855	386.21
1198.548	-664.4
1199.242	-885.58
1199.936	459.94
1200.631	584.87
1201.326	-910.15
1202.022	-693.07
1202.718	789.66
1203.415	472.23
1204.112	-873.29
1204.81	-547.66
1205.508	119.98
1206.206	871.58
1206.905	-701.26
1207.605	-721.74
1208.305	310.44
1209.005	367.78
1209.706	-842.57
1210.408	-723.79
1211.11	265.38
1211.812	482.47
1212.515	-557.9
1213.218	-566.09
1213.922	339.11
1214.627	249
1215.331	-545.61
1216.037	-586.57
1216.743	33.96
1217.449	486.56
1218.156	-521.04
1218.863	-557.9
1219.571	357.54
1220.279	791.71
1220.988	-774.99
1221.697	-602.96
1222.406	621.73
1223.117	191.66
1223.827	-525.13
1224.538	-656.2
1225.25	384.16
1225.962	289.96
1226.675	-994.12
1227.388	-555.85
1228.101	302.25
1228.815	27.82
1229.53	-543.57
1230.245	-553.8
1230.961	406.69
1231.677	308.39
1232.393	-574.28
1233.11	-625.48
1233.828	904.35
1234.546	396.45
1235.264	-514.89
1235.983	-373.58
1236.702	1182.87
1237.422	380.07
1238.143	-357.2
1238.864	-742.22
1239.585	763.04
1240.307	-242.51
1241.029	-867.14
1241.752	-416.59
1242.476	752.8
1243.2	793.76
1243.924	-541.52
1244.649	-521.04
1245.374	695.46
1246.1	871.58
1246.826	-846.66
1247.553	-656.2
1248.28	470.18
1249.008	539.81
1249.737	-717.64
1250.465	-394.06
1251.195	543.91
1251.925	744.61
1252.655	-672.59
1253.386	-330.58
1254.117	359.59
1254.849	152.74
1255.581	-578.38
1256.314	-531.28
1257.047	662.69
1257.781	513.19
1258.515	-652.11
1259.25	-201.55
1259.985	355.49
1260.721	464.04
1261.457	-531.28
1262.194	-920.39
1262.931	167.08
1263.669	806.05
1264.407	-543.57
1265.146	-752.46
1265.885	380.07
1266.625	208.04
1267.365	-619.34
1268.106	-731.98
1268.847	447.65
1269.589	126.12
1270.331	-371.54
1271.074	-584.52
1271.817	437.41
1272.561	396.45
1273.305	-287.57
1274.05	-387.92
1274.795	480.42
1275.541	464.04
1276.287	-953.16
1277.034	-779.08
1277.781	60.59
1278.529	625.83
1279.277	-807.75
1280.026	-881.48
1280.775	863.39
1281.525	-371.54
1282.275	-906.06
1283.026	-232.27
1283.777	414.88
1284.529	429.22
1285.281	-543.57
1286.034	-770.89
1286.788	691.36
1287.541	453.8
1288.296	-805.71
1289.051	-394.06
1289.806	504.99
1290.562	445.6
1291.318	-791.37
1292.075	-502.61
1292.832	769.18
1293.59	830.62
1294.349	-590.67
1295.108	-674.64
1295.867	1006.75
1296.627	597.15
1297.387	-846.66
1298.148	-475.98
1298.91	347.3
1299.672	154.79
1300.434	-676.68
1301.197	-801.61
1301.961	1363.09
1302.725	335.01
1303.489	-420.69
1304.254	-578.38
1305.02	451.75
1305.786	679.07
1306.552	-920.39
1307.319	-928.58
1308.087	826.53
1308.855	758.94
1309.624	-611.15
1310.393	-439.12
1311.162	-250.71
1311.933	631.97
1312.703	-668.49
1313.474	-443.21
1314.246	242.85
1315.018	543.91
1315.791	-283.47
1316.564	-742.22
1317.338	695.46
1318.112	308.39
1318.887	-830.28
1319.662	-488.27
1320.438	371.88
1321.214	103.59
1321.991	-471.89
1322.769	-725.83
1323.546	363.69
1324.325	85.16
1325.104	-742.22
1325.883	-537.42
1326.663	-60.24
1327.444	408.74
1328.224	-660.3
1329.006	-529.23
1329.788	511.14
1330.571	339.11
1331.354	-301.9
1332.137	-695.11
1332.921	740.51
1333.706	-125.78
1334.491	-322.38
1335.277	-480.08
1336.063	126.12
1336.849	253.09
1337.637	-676.68
1338.424	-682.83
1339.213	990.36
1340.001	828.57
1340.791	-863.05
1341.581	-371.54
1342.371	578.72
1343.162	314.53
1343.953	-641.87
1344.745	-437.07
1345.537	621.73
1346.33	597.15
1347.124	-705.35
1347.918	-387.92
1348.712	986.27
1349.507	484.52
1350.303	-639.82
1351.099	-500.56
1351.896	128.17
1352.693	-179.03
1353.49	-553.8
1354.289	-582.48
1355.087	625.83
1355.887	765.09
1356.686	-557.9
1357.487	-691.02
1358.288	93.35
1359.089	292.01
1359.891	-230.23
1360.693	-559.95
1361.496	-64.34
1362.3	234.66
1363.104	-703.31
1363.908	-668.49
1364.713	828.57
1365.519	863.39
1366.325	-568.14
1367.131	-815.94
1367.939	314.53
1368.746	863.39
1369.555	-981.83
1370.363	-467.79
1371.173	847.01
1371.982	1244.31
1372.793	-713.55
1373.604	-867.14
1374.415	625.83
1375.227	760.99
1376.039	-760.65
1376.852	-774.99
1377.666	1043.61
1378.48	349.35
1379.295	-707.4
1380.11	-844.62
1380.925	-50
1381.742	998.56
1382.558	-578.38
1383.376	-639.82
1384.193	335.01
1385.012	142.5
1385.831	-664.4
1386.65	-531.28
1387.47	146.6
1388.29	306.34
1389.111	-590.67
1389.933	-832.33
1390.755	629.92
1391.578	355.49
1392.401	-807.75
1393.225	-656.2
1394.049	742.56
1394.873	283.81
1395.699	-748.36
1396.525	-578.38
1397.351	638.11
1398.178	60.59
1399.005	-596.81
1399.833	-1061.7
1400.662	560.29
1401.491	945.31
1402.321	-590.67
1403.151	-607.05
1403.981	429.22
1404.813	601.25
1405.644	-502.61
1406.477	-648.01
1407.309	277.67
1408.143	1146.01
1408.977	-789.32
1409.811	-631.63
1410.646	971.93
1411.482	779.42
1412.318	-512.85
1413.155	-670.54
1413.992	736.42
1414.829	-52.05
1415.668	-625.48
1416.506	-373.58
1417.346	830.62
1418.186	400.55
1419.026	-658.25
1419.867	-791.37
1420.709	584.87
1421.551	576.67
1422.393	-897.86
1423.236	-365.39
1424.08	343.21
1424.924	404.64
1425.769	-791.37
1426.614	-676.68
1427.46	421.03
1428.307	154.79
1429.154	-832.33
1430.001	-756.55
1430.849	367.78
1431.698	332.97
1432.547	-910.15
1433.397	-934.73
1434.247	666.78
1435.098	896.16
1435.949	-672.59
1436.801	-676.68
1437.653	183.46
1438.506	625.83
1439.36	-871.24
1440.214	-832.33
1441.069	597.15
1441.924	421.03
1442.78	-641.87
1443.636	-844.62
1444.493	347.3
1445.35	466.08
1446.208	-478.03
1447.067	-756.55
1447.926	427.17
1448.785	922.78
1449.645	-684.87
1450.506	-674.64
1451.367	496.8
1452.229	93.35
1453.091	-813.9
1453.954	-332.62
1454.818	228.52
1455.682	414.88
1456.546	-807.75
1457.412	-822.09
1458.277	789.66
1459.143	421.03
1460.01	-381.78
1460.878	-762.7
1461.745	445.6
1462.614	130.22
1463.483	-881.48
1464.352	-430.93
1465.223	756.9
1466.093	629.92
1466.964	-783.18
1467.836	-725.83
1468.709	842.91
1469.581	398.5
1470.455	-535.37
1471.329	-652.11
1472.203	76.97
1473.079	152.74
1473.954	-283.47
1474.831	-906.06
1475.707	52.39
1476.585	234.66
1477.463	-820.04
1478.341	-688.97
1479.22	-0.85
1480.1	380.07
1480.98	-979.78
1481.861	-840.52
1482.742	545.95
1483.624	625.83
1484.506	-426.83
1485.389	-529.23
1486.273	240.81
1487.157	187.56
1488.041	-699.21
1488.926	-883.53
1489.812	429.22
1490.699	490.66
1491.585	-682.83
1492.473	-574.28
1493.361	-217.94
1494.249	363.69
1495.139	-373.58
1496.028	-471.89
1496.919	36.01
1497.809	437.41
1498.701	-738.12
1499.593	-656.2
1500.485	208.04
1501.378	752.8
1502.272	-357.2
1503.166	-596.81
1504.061	724.13
1504.956	470.18
1505.852	-666.44
1506.749	-797.51
1507.646	470.18
1508.543	425.12
1509.442	-830.28
1510.34	-144.21
1511.24	998.56
1512.14	310.44
1513.04	-605
1513.941	-793.42
1514.843	1266.84
1515.745	-2.9
1516.648	-723.79
1517.551	-836.42
1518.455	-158.55
1519.359	-279.38
1520.264	-772.94
1521.17	-922.44
1522.076	199.85
1522.983	670.88
1523.89	-834.38
1524.798	-488.27
1525.706	308.39
1526.615	1250.46
1527.525	-873.29
1528.435	-637.77
1529.346	421.03
1530.257	19.63
1531.169	-389.97
1532.081	-758.6
1532.994	914.59
1533.908	302.25
1534.822	-578.38
1535.737	-648.01
1536.652	398.5
1537.568	316.58
1538.484	-648.01
1539.401	-985.93
1540.319	844.96
1541.237	-86.87
1542.156	-848.71
1543.075	-729.93
1543.995	1074.33
1544.916	986.27
1545.837	-760.65
1546.758	-791.37
1547.68	674.98
1548.603	617.63
1549.527	-549.71
1550.451	-787.27
1551.375	543.91
1552.3	670.88
1553.226	-865.1
1554.152	-709.45
1555.079	750.75
1556.006	355.49
1556.934	-537.42
1557.863	-543.57
1558.792	969.88
1559.722	126.12
1560.652	-467.79
1561.583	-875.34
1562.514	11.43
1563.446	132.26
1564.379	-1035.08
1565.312	-594.76
1566.246	760.99
1567.18	326.82
1568.115	-602.96
1569.051	-813.9
1569.987	824.48
1570.924	1010.84
1571.861	-889.67
1572.799	-600.91
1573.737	740.51
1574.676	347.3
1575.616	-553.8
1576.556	-770.89
1577.497	44.2
1578.438	169.13
1579.38	-639.82
1580.323	-619.34
1581.266	453.8
1582.21	769.18
1583.154	-725.83
1584.099	-813.9
1585.044	527.52
1585.99	662.69
1586.937	-387.92
1587.884	-668.49
1588.832	361.64
1589.78	881.82
1590.729	-725.83
1591.679	-367.44
1592.629	363.69
1593.58	511.14
1594.531	-578.38
1595.483	-471.89
1596.435	195.75
1597.388	126.12
1598.342	-355.15
1599.296	-463.69
1600.251	586.91
1601.207	756.9
1602.163	-586.57
1603.119	-738.12
1604.077	736.42
1605.034	865.44
1605.993	-463.69
1606.952	-7
1607.911	273.57
1608.872	515.23
1609.832	-777.03
1610.794	-877.38
1611.756	640.16
1612.718	556.19
1613.681	-320.34
1614.645	-699.21
1615.609	740.51
1616.574	246.95
1617.54	-148.31
1618.506	-670.54
1619.472	822.43
1620.44	699.55
1621.408	-131.92
1622.376	-435.02
1623.345	388.26
1624.315	728.22
1625.285	-527.18
1626.256	-518.99
1627.227	488.61
1628.199	-54.1
1629.172	-478.03
1630.145	-422.73
1631.119	556.19
1632.094	1154.2
1633.069	-641.87
1634.044	-379.73
1635.02	222.38
1635.997	683.17
1636.975	-623.44
1637.953	-791.37
1638.931	951.45
1639.911	21.67
1640.89	-809.8
1641.871	-594.76
1642.852	582.82
1643.833	429.22
1644.816	-705.35
1645.798	-856.9
1646.782	957.6
1647.766	208.04
1648.75	-652.11
1649.736	-639.82
1650.721	-101.2
1651.708	476.32
1652.695	-674.64
1653.682	-529.23
1654.671	378.02
1655.66	656.54
1656.649	-666.44
1657.639	-611.15
1658.63	-9.05
1659.621	287.91
1660.613	-822.09
1661.605	-756.55
1662.598	158.89
1663.592	265.38
1664.586	-914.25
1665.581	-789.32
1666.576	199.85
1667.572	443.56
1668.569	-721.74
1669.566	-750.41
1670.564	492.71
1671.563	720.03
1672.562	-641.87
1673.562	-316.24
1674.562	425.12
1675.563	525.47
1676.564	-414.54
1677.566	-615.24
1678.569	994.46
1679.572	-287.57
1680.576	-494.41
1681.581	-688.97
1682.586	249
1683.592	539.81
1684.598	-609.1
1685.605	-496.46
1686.613	758.94
1687.621	306.34
1688.63	-486.22
1689.639	-471.89
1690.649	251.05
1691.66	367.78
1692.671	-422.73
1693.683	-658.25
1694.696	46.25
1695.709	441.51
1696.722	-674.64
1697.737	-619.34
1698.752	208.04
1699.767	498.85
1700.783	-545.61
1701.8	-467.79
1702.818	400.55
1703.836	52.39
1704.854	-815.94
1705.873	-717.64
1706.893	150.7
1707.914	363.69
1708.935	-674.64
1709.956	-633.68
1710.979	205.99
1712.002	359.59
1713.025	-652.11
1714.049	-535.37
1715.074	609.44
1716.099	597.15
1717.125	-799.56
1718.152	-828.23
1719.179	7.34
1720.207	717.98
1721.235	11.43
1722.265	-275.28
1723.294	304.29
1724.325	220.33
1725.355	-428.88
1726.387	-469.84
1727.419	363.69
1728.452	560.29
1729.485	-496.46
1730.519	-756.55
1731.554	-17.24
1732.589	482.47
1733.625	-797.51
1734.662	-658.25
1735.699	-99.16
1736.736	828.57
1737.775	-766.79
1738.814	-633.68
1739.853	130.22
1740.894	169.13
1741.934	-525.13
1742.976	-682.83
1744.018	619.68
1745.061	298.15
1746.104	-705.35
1747.148	-758.6
1748.193	279.72
1749.238	351.4
1750.284	-510.8
1751.33	-766.79
1752.377	474.28
1753.425	1062.04
1754.473	-594.76
1755.522	-535.37
1756.572	793.76
1757.622	504.99
1758.673	-840.52
1759.724	-527.18
1760.776	703.65
1761.829	701.6
1762.882	-271.19
1763.936	-774.99
1764.991	5.29
1766.046	1092.76
1767.102	-332.62
1768.158	-746.31
1769.215	507.04
1770.273	515.23
1771.331	-447.31
1772.39	-723.79
1773.45	449.7
1774.51	550.05
1775.571	-799.56
1776.632	-152.4
1777.694	240.81
1778.757	593.06
1779.82	-416.59
1780.884	-533.33
1781.949	181.42
1783.014	519.33
1784.08	-944.97
1785.147	-635.72
1786.214	195.75
1787.282	173.22
1788.35	-385.87
1789.419	-406.35
1790.489	691.36
1791.559	408.74
1792.63	-731.98
1793.702	-387.92
1794.774	230.57
1795.847	591.01
1796.92	-447.31
1797.994	-455.5
1799.069	591.01
1800.144	1162.39
1801.22	-758.6
1802.297	-338.77
1803.374	7.34
1804.452	511.14
1805.531	-666.44
1806.61	-381.78
1807.69	576.67
1808.77	-88.92
1809.851	-484.17
1810.933	-973.64
1812.015	654.5
1813.098	76.97
1814.182	-637.77
1815.266	-535.37
1816.351	310.44
1817.437	296.1
1818.523	-578.38
1819.61	-541.52
1820.697	369.83
1821.785	1201.3
1822.874	-578.38
1823.963	-535.37
1825.053	289.96
1826.144	611.49
1827.235	-717.64
1828.327	-615.24
1829.42	402.6
1830.513	-35.67
1831.607	-783.18
1832.701	-607.05
1833.796	355.49
1834.892	728.22
1835.989	-736.07
1837.086	-756.55
1838.183	494.76
1839.282	257.19
1840.381	-574.28
1841.48	-668.49
1842.581	447.65
1843.682	920.73
1844.783	-256.85
1845.885	-381.78
1846.988	679.07
1848.092	421.03
1849.196	-549.71
1850.301	-496.46
1851.406	36.01
1852.512	1070.23
1853.619	-602.96
1854.726	-709.45
1855.834	136.36
1856.943	785.57
1858.052	-684.87
1859.162	-641.87
1860.273	410.79
1861.384	734.37
1862.496	-652.11
1863.608	-633.68
1864.721	507.04
1865.835	111.78
1866.95	-707.4
1868.065	-772.94
1869.181	185.51
1870.297	621.73
1871.414	-191.31
1872.532	-795.47
1873.65	162.98
1874.769	158.89
1875.889	-729.93
1877.009	-228.18
1878.13	416.93
1879.252	769.18
1880.374	-461.65
1881.497	-660.3
1882.62	398.5
1883.745	195.75
1884.87	-820.04
1885.995	-832.33
1887.121	251.05
1888.248	111.78
1889.376	-873.29
1890.504	-723.79
1891.632	371.88
1892.762	177.32
1893.892	-684.87
1895.023	-398.16
1896.154	152.74
1897.286	249
1898.419	-709.45
1899.552	-545.61
1900.686	515.23
1901.821	494.76
1902.956	-701.26
1904.092	-562
1905.229	828.57
1906.366	629.92
1907.504	-744.27
1908.643	-650.06
1909.782	609.44
