Data from led2700K_USB4H112691__5__12-55-16-101.txt Node

Date: Tue Dec 17 12:55:16 CET 2024
User: Etudiants TP
Spectrometer: USB4H11269
Trigger mode: 4
Integration Time (sec): 1.000000E0
Scans to average: 1
Electric dark correction enabled: true
Nonlinearity correction enabled: false
Boxcar width: 0
XAxis mode: Wavelengths
Number of Pixels in Spectrum: 3648
>>>>>Begin Spectral Data<<<<<
286.377	-1734.63
286.631	-1734.63
286.884	-1734.63
287.138	-1738.73
287.391	-1708.01
287.644	-880.63
287.896	-663.54
288.149	856.05
288.401	440.31
288.653	-583.67
288.905	-444.41
289.157	903.15
289.409	346.11
289.661	-436.22
289.912	-806.9
290.163	511.99
290.414	757.75
290.665	-675.83
290.916	-659.45
291.166	589.81
291.417	1001.46
291.667	-632.82
291.917	-307.2
292.167	567.29
292.417	370.68
292.666	-735.22
292.916	-681.97
293.165	530.42
293.414	716.79
293.663	-921.59
293.912	-753.65
294.16	708.6
294.408	706.55
294.657	-665.59
294.905	-456.7
295.153	589.81
295.4	610.29
295.648	-823.28
295.895	-770.04
296.143	194.56
296.39	759.8
296.637	-657.4
296.884	-733.17
297.13	593.91
297.377	856.05
297.623	-643.06
297.869	-331.77
298.115	782.32
298.361	761.84
298.606	-765.94
298.852	-704.5
299.097	540.66
299.342	1023.98
299.587	-436.22
299.832	-667.64
300.077	765.94
300.322	604.15
300.566	-763.89
300.81	-569.34
301.054	591.86
301.298	856.05
301.542	-167.93
301.785	-442.36
302.029	942.07
302.272	776.18
302.515	-897.01
302.758	-540.66
303.001	794.61
303.244	722.93
303.486	-624.63
303.729	-1003.5
303.971	970.74
304.213	749.56
304.455	-907.25
304.696	-401.4
304.938	290.81
305.179	767.99
305.421	-532.47
305.662	-387.07
305.903	389.11
306.143	399.35
306.384	-452.6
306.625	-489.46
306.865	413.69
307.105	247.8
307.345	-511.99
307.585	-507.9
307.825	124.93
308.064	739.32
308.304	-618.49
308.543	-813.04
308.782	595.96
309.021	882.67
309.26	-421.88
309.499	-587.77
309.737	890.87
309.976	677.88
310.214	-708.6
310.452	-706.55
310.69	1122.29
310.928	237.56
311.165	-688.12
311.403	-714.74
311.64	804.85
311.878	555
312.115	-577.53
312.351	-595.96
312.588	511.99
312.825	966.64
313.061	-794.61
313.298	-43.01
313.534	235.52
313.77	794.61
314.006	-665.59
314.241	-747.51
314.477	827.38
314.713	1161.2
314.948	-565.24
315.183	176.13
315.418	958.45
315.653	589.81
315.888	-747.51
316.122	-503.8
316.357	368.63
316.591	819.19
316.825	-530.42
317.059	-692.21
317.293	933.87
317.527	464.89
317.76	-757.75
317.994	-421.88
318.227	643.06
318.46	1171.44
318.693	-829.43
318.926	-511.99
319.159	139.26
319.391	573.43
319.624	-819.19
319.856	-585.72
320.088	880.63
320.321	673.78
320.552	-356.35
320.784	-722.93
321.016	944.11
321.247	-61.44
321.479	-428.03
321.71	-460.79
321.941	-190.46
322.172	1095.66
322.403	-643.06
322.633	-471.03
322.864	808.95
323.094	210.94
323.325	-57.34
323.555	-630.77
323.785	305.15
324.014	313.34
324.244	-466.94
324.474	-391.16
324.703	913.39
324.933	774.13
325.162	-413.69
325.391	-851.96
325.62	-67.58
325.848	851.95
326.077	-540.66
326.306	-380.92
326.534	708.6
326.762	954.35
326.99	-612.34
327.218	-260.09
327.446	827.38
327.674	26.62
327.901	-653.3
328.129	-663.54
328.356	802.8
328.583	237.56
328.81	-710.65
329.037	-487.42
329.264	372.73
329.491	780.28
329.717	-442.36
329.944	-694.26
330.17	464.89
330.396	135.17
330.622	-745.46
330.848	-430.07
331.074	516.09
331.299	1398.76
331.525	-716.79
331.75	-643.06
331.975	899.06
332.201	208.89
332.426	-952.31
332.65	-610.29
332.875	-155.65
333.1	514.04
333.324	-614.39
333.549	-708.6
333.773	282.62
333.997	497.66
334.221	-638.97
334.445	-690.17
334.668	604.15
334.892	1071.09
335.116	-370.68
335.339	-589.82
335.562	-12.29
335.785	448.51
336.008	-339.96
336.231	-645.11
336.454	-147.45
336.676	995.31
336.899	-534.52
337.121	-260.09
337.343	-24.58
337.566	567.29
337.788	-606.2
338.009	-714.74
338.231	51.2
338.453	495.61
338.674	3416.01
338.896	-462.84
339.117	-67.58
339.338	1009.65
339.559	-681.97
339.78	-528.38
340.001	-28.67
340.222	847.86
340.442	-632.82
340.663	-348.15
340.883	841.72
341.103	425.98
341.323	-659.45
341.543	-407.55
341.763	835.57
341.983	380.92
342.202	-729.08
342.422	-722.93
342.641	1200.11
342.861	346.11
343.08	-233.47
343.299	-749.56
343.518	692.21
343.736	608.25
343.955	-712.69
344.174	-714.74
344.392	806.9
344.61	169.98
344.829	-718.84
345.047	-546.81
345.265	598.01
345.483	921.59
345.7	-667.64
345.918	-237.56
346.136	61.44
346.353	905.2
346.57	-745.46
346.788	-735.22
347.005	331.77
347.222	22.53
347.438	-90.11
347.655	-595.96
347.872	227.32
348.088	1116.14
348.305	-471.03
348.521	-677.88
348.737	96.25
348.953	847.86
349.169	-286.72
349.385	-534.52
349.601	462.84
349.817	-100.35
350.032	-184.32
350.248	-327.68
350.463	1196.01
350.678	-217.08
350.893	-618.49
351.108	-710.65
351.323	176.13
351.538	712.69
351.753	-669.69
351.967	-614.39
352.182	778.23
352.396	256
352.61	-780.28
352.824	-493.56
353.038	548.86
353.252	845.81
353.466	-471.03
353.68	-528.38
353.894	374.78
354.107	198.65
354.32	-473.08
354.534	-630.77
354.747	655.35
354.96	-137.21
355.173	-346.11
355.386	-782.32
355.599	552.95
355.811	241.66
356.024	-700.41
356.236	-401.4
356.449	352.25
356.661	344.06
356.873	-829.43
357.085	-933.87
357.297	796.66
357.509	573.43
357.721	-647.16
357.933	-514.04
358.144	284.67
358.356	225.28
358.567	-378.87
358.778	-780.28
358.989	917.49
359.2	110.59
359.411	-499.7
359.622	-438.27
359.833	546.81
360.044	348.15
360.254	-593.91
360.465	-813.04
360.675	491.51
360.885	382.97
361.096	-802.8
361.306	-501.75
361.516	315.39
361.726	497.66
361.935	-950.26
362.145	-587.77
362.355	505.85
362.564	458.74
362.774	-731.12
362.983	-897.01
363.192	802.8
363.401	126.97
363.61	-696.31
363.819	-299
364.028	299
364.237	985.07
364.445	-561.14
364.654	-376.83
364.862	397.31
365.071	188.41
365.279	-471.03
365.487	-671.73
365.695	587.77
365.903	385.02
366.111	-710.65
366.319	-626.68
366.527	604.15
366.734	290.81
366.942	-428.03
367.149	-778.23
367.357	-567.29
367.564	1116.14
367.771	-565.24
367.978	-684.02
368.185	151.55
368.392	438.27
368.599	-438.27
368.806	-634.87
369.013	-18.43
369.219	532.47
369.426	-860.15
369.632	-237.56
369.838	1167.34
370.044	534.52
370.251	-610.29
370.457	-585.72
370.663	952.31
370.868	372.73
371.074	-622.58
371.28	-698.36
371.485	-176.13
371.691	610.29
371.896	-589.82
372.102	-761.84
372.307	1110
372.512	808.95
372.717	-671.73
372.922	-282.62
373.127	88.06
373.332	317.44
373.537	-503.8
373.741	-632.82
373.946	475.13
374.151	237.56
374.355	-745.46
374.559	-509.94
374.764	301.05
374.968	-321.53
375.172	-620.53
375.376	-352.25
375.58	620.53
375.784	47.1
375.987	-765.94
376.191	-559.1
376.395	169.98
376.598	202.75
376.802	-735.22
377.005	-327.68
377.208	251.9
377.412	165.89
377.615	-858.1
377.818	-634.87
378.021	290.81
378.224	-126.97
378.426	-675.83
378.629	-909.3
378.832	727.03
379.034	679.93
379.237	-927.73
379.439	-854
379.642	765.94
379.844	516.09
380.046	-964.59
380.248	-831.48
380.45	-196.61
380.652	-102.4
380.854	-561.14
381.056	-638.97
381.258	362.49
381.459	423.93
381.661	-784.37
381.862	-348.15
382.064	-126.97
382.265	202.75
382.467	-718.84
382.668	-624.63
382.869	708.6
383.07	487.42
383.271	-557.05
383.472	-647.16
383.673	600.05
383.874	270.33
384.074	-446.46
384.275	-856.05
384.476	532.47
384.676	1087.47
384.876	-784.37
385.077	-671.73
385.277	661.49
385.477	882.67
385.677	-714.74
385.878	-561.14
386.078	356.35
386.278	245.76
386.477	-325.63
386.677	-202.75
386.877	536.57
387.077	770.04
387.276	-421.88
387.476	-526.33
387.675	311.29
387.875	915.44
388.074	-698.36
388.273	-585.72
388.472	839.67
388.671	-172.03
388.87	-679.93
389.069	-163.84
389.268	-45.06
389.467	69.63
389.666	-798.71
389.865	-225.28
390.063	585.72
390.262	774.13
390.461	-704.5
390.659	-755.7
390.857	610.29
391.056	659.45
391.254	-671.73
391.452	-577.53
391.65	765.94
391.849	620.53
392.047	-487.42
392.245	-282.62
392.442	268.28
392.64	450.55
392.838	-370.68
393.036	-618.49
393.233	319.48
393.431	217.08
393.629	-876.53
393.826	-522.23
394.023	331.77
394.221	-100.35
394.418	-569.34
394.615	-243.71
394.812	-96.25
395.01	688.12
395.207	-604.15
395.404	-780.28
395.601	964.59
395.797	450.55
395.994	-831.48
396.191	-589.82
396.388	192.51
396.584	651.25
396.781	-313.34
396.977	-28.67
397.174	522.23
397.37	-57.34
397.567	-430.07
397.763	-671.73
397.959	397.31
398.155	204.8
398.352	-575.48
398.548	-217.08
398.744	479.22
398.94	423.93
399.136	-788.47
399.331	-258.04
399.527	335.87
399.723	520.18
399.919	-417.79
400.114	-534.52
400.31	292.86
400.505	540.66
400.701	-612.34
400.896	-550.9
401.092	114.69
401.287	430.07
401.482	-749.56
401.678	-436.22
401.873	626.68
402.068	565.24
402.263	-411.64
402.458	-520.18
402.653	208.89
402.848	518.14
403.043	-524.28
403.237	-690.17
403.432	151.55
403.627	-196.61
403.822	-772.08
404.016	-614.39
404.211	69.63
404.405	692.21
404.6	-221.18
404.794	-321.53
404.989	528.38
405.183	145.41
405.377	-321.53
405.571	-196.61
405.766	540.66
405.96	274.43
406.154	-602.1
406.348	-464.89
406.542	524.28
406.736	544.76
406.93	-733.17
407.124	-499.7
407.318	290.81
407.511	286.72
407.705	-315.39
407.899	-589.82
408.092	382.97
408.286	460.79
408.48	-731.12
408.673	-579.58
408.867	106.49
409.06	315.39
409.253	-454.65
409.447	-425.98
409.64	626.68
409.833	411.64
410.026	-462.84
410.22	-307.2
410.413	620.53
410.606	491.51
410.799	-714.74
410.992	-606.2
411.185	180.22
411.378	952.31
411.571	-557.05
411.764	-450.55
411.956	555
412.149	403.45
412.342	-395.26
412.534	-475.13
412.727	643.06
412.92	366.59
413.112	-442.36
413.305	-327.68
413.497	774.13
413.69	591.86
413.882	-485.37
414.075	-358.39
414.267	413.69
414.459	321.53
414.652	-659.45
414.844	-495.61
415.036	446.46
415.228	724.98
415.42	-274.43
415.612	-561.14
415.804	917.49
415.997	382.97
416.188	-368.63
416.38	-366.59
416.572	24.58
416.764	507.9
416.956	-595.96
417.148	-573.43
417.34	321.53
417.531	-53.25
417.723	-569.34
417.915	-464.89
418.107	-2.05
418.298	448.51
418.49	-430.07
418.681	-327.68
418.873	802.8
419.064	372.73
419.256	-376.83
419.447	-587.77
419.639	536.57
419.83	784.37
420.021	-278.52
420.213	-638.97
420.404	301.05
420.595	495.61
420.786	-337.91
420.978	-376.83
421.169	694.26
421.36	241.66
421.551	-485.37
421.742	-577.53
421.933	913.39
422.124	593.91
422.315	-458.75
422.506	-471.03
422.697	557.05
422.888	131.07
423.079	-225.28
423.27	-491.51
423.461	337.91
423.652	178.17
423.842	-520.18
424.033	-499.7
424.224	540.66
424.415	968.69
424.605	-372.73
424.796	-452.6
424.987	626.68
425.177	501.75
425.368	-786.42
425.558	-684.02
425.749	311.29
425.939	215.04
426.13	-141.31
426.32	-331.77
426.511	212.99
426.701	163.84
426.892	-421.88
427.082	-503.8
427.272	188.41
427.463	352.25
427.653	-446.46
427.843	-311.29
428.034	948.21
428.224	440.31
428.414	-634.87
428.604	-397.31
428.795	536.57
428.985	555
429.175	-176.13
429.365	-159.74
429.555	425.98
429.745	409.59
429.935	-462.84
430.126	-321.53
430.316	614.39
430.506	684.02
430.696	-452.6
430.886	-206.84
431.076	507.9
431.266	301.05
431.456	-147.45
431.645	-477.18
431.835	190.46
432.025	466.94
432.215	-595.96
432.405	-165.89
432.595	552.95
432.785	391.16
432.975	-618.49
433.164	-561.14
433.354	126.97
433.544	567.29
433.734	-620.53
433.923	-237.56
434.113	376.83
434.303	448.51
434.493	-176.13
434.682	-444.41
434.872	671.73
435.062	-61.44
435.251	-428.03
435.441	-403.45
435.631	847.86
435.82	366.59
436.01	-616.44
436.2	-299
436.389	208.89
436.579	868.34
436.768	-69.63
436.958	-102.4
437.147	419.83
437.337	638.97
437.527	-221.18
437.716	-397.31
437.906	772.08
438.095	393.21
438.285	-428.03
438.474	-241.66
438.664	745.46
438.853	573.43
439.043	-192.51
439.232	-552.95
439.422	587.77
439.611	610.29
439.8	-428.03
439.99	-63.49
440.179	700.41
440.369	927.73
440.558	-557.05
440.748	-329.72
440.937	405.5
441.126	118.78
441.316	-172.03
441.505	-389.11
441.695	626.68
441.884	1091.57
442.073	-204.8
442.263	-317.44
442.452	548.86
442.642	688.12
442.831	-274.43
443.02	96.25
443.21	1003.5
443.399	1400.81
443.588	-231.42
443.778	-43.01
443.967	1241.07
444.156	708.6
444.346	-282.62
444.535	-407.55
444.725	1155.05
444.914	647.16
445.103	-315.39
445.293	-81.92
445.482	1155.05
445.671	815.09
445.861	8.19
446.05	-14.34
446.239	921.59
446.429	544.76
446.618	-311.29
446.807	268.28
446.997	903.15
447.186	856.05
447.376	24.58
447.565	178.17
447.754	1183.73
447.944	1306.6
448.133	-40.96
448.322	-86.01
448.512	751.6
448.701	1478.63
448.891	122.88
449.08	233.47
449.269	321.53
449.459	653.3
449.648	57.34
449.838	-16.38
450.027	708.6
450.217	456.7
450.406	14.34
450.595	129.02
450.785	1150.96
450.974	1001.46
451.164	-59.39
451.353	192.51
451.543	1046.51
451.732	1466.35
451.922	-28.67
452.111	98.3
452.301	528.38
452.49	450.55
452.68	-251.9
452.869	528.38
453.059	610.29
453.249	1196.01
453.438	-364.54
453.628	4.1
453.817	1015.79
454.007	737.27
454.197	-321.53
454.386	143.36
454.576	1185.77
454.765	1163.25
454.955	137.21
455.145	-98.3
455.334	817.14
455.524	587.77
455.714	180.22
455.904	-8.19
456.093	1542.12
456.283	970.74
456.473	-28.67
456.663	-149.5
456.852	972.79
457.042	866.29
457.232	-98.3
457.422	686.07
457.612	999.41
457.802	1202.16
457.991	-356.35
458.181	-258.04
458.371	1058.8
458.561	888.82
458.751	-118.78
458.941	-217.08
459.131	767.99
459.321	602.1
459.511	155.65
459.701	36.86
459.891	917.49
460.081	344.06
460.271	-135.17
460.461	-266.24
460.651	1546.22
460.841	1236.97
461.032	-122.88
461.222	-176.13
461.412	757.75
461.602	1546.22
461.792	-438.27
461.983	-315.39
462.173	718.84
462.363	1409
462.554	-133.12
462.744	-172.03
462.934	1034.22
463.125	854
463.315	-282.62
463.505	-61.44
463.696	847.86
463.886	495.61
464.077	-286.72
464.267	-229.37
464.458	1204.21
464.648	423.93
464.839	40.96
465.03	-180.22
465.22	364.54
465.411	925.68
465.601	-223.23
465.792	-176.13
465.983	626.68
466.174	937.97
466.364	-507.9
466.555	-184.32
466.746	854
466.937	540.66
467.128	-311.29
467.319	-178.17
467.51	1003.5
467.701	1660.9
467.891	-196.61
468.082	-258.04
468.274	741.36
468.465	208.89
468.656	-126.97
468.847	-444.41
469.038	348.15
469.229	499.7
469.42	-120.83
469.612	-241.66
469.803	876.53
469.994	772.08
470.185	-38.91
470.377	-358.39
470.568	675.83
470.76	712.69
470.951	-167.93
471.142	-32.77
471.334	913.39
471.526	813.04
471.717	-22.53
471.909	-440.31
472.1	555
472.292	688.12
472.484	-360.44
472.675	-352.25
472.867	612.34
473.059	1167.34
473.251	-151.55
473.443	-253.95
473.635	722.93
473.826	907.25
474.018	-376.83
474.21	-12.29
474.402	833.52
474.595	1200.11
474.787	-299
474.979	36.86
475.171	538.62
475.363	325.63
475.555	-602.1
475.748	-233.47
475.94	823.28
476.132	538.62
476.325	-360.44
476.517	245.76
476.71	1488.87
476.902	489.46
477.095	-362.49
477.287	-0
477.48	999.41
477.673	847.86
477.865	-90.11
478.058	-233.47
478.251	901.11
478.444	1193.97
478.636	-51.2
478.829	-212.99
479.022	958.45
479.215	1023.98
479.408	-16.38
479.601	258.04
479.794	434.17
479.988	606.2
480.181	100.35
480.374	-94.21
480.567	892.91
480.76	1535.98
480.954	-0
481.147	-331.77
481.341	636.92
481.534	696.31
481.728	65.53
481.921	200.7
482.115	1118.19
482.308	1312.75
482.502	-116.73
482.696	-73.73
482.89	1609.7
483.084	1144.81
483.277	147.45
483.471	129.02
483.665	1341.42
483.859	2199.52
484.053	-249.85
484.247	-135.17
484.442	940.02
484.636	1042.42
484.83	6.14
485.024	315.39
485.219	1036.27
485.413	911.35
485.608	-43.01
485.802	425.98
485.997	1572.84
486.191	1105.9
486.386	192.51
486.58	421.88
486.775	1216.49
486.97	1570.79
487.165	223.23
487.36	282.62
487.555	1206.25
487.75	1245.16
487.945	511.99
488.14	108.54
488.335	1101.81
488.53	1054.7
488.725	342.01
488.92	552.95
489.116	1767.4
489.311	1417.19
489.507	325.63
489.702	882.67
489.898	1816.55
490.093	1286.12
490.289	954.35
490.485	526.33
490.68	1007.6
490.876	2027.49
491.072	460.79
491.268	751.6
491.464	2101.22
491.66	1896.42
491.856	800.76
492.052	1226.73
492.248	2062.3
492.445	1816.55
492.641	729.08
492.837	784.37
493.034	2097.12
493.23	2408.41
493.427	1325.04
493.623	942.07
493.82	2095.07
494.017	2449.37
494.214	1081.33
494.41	972.79
494.607	2248.67
494.804	1900.51
495.001	1327.08
495.198	1357.8
495.395	2535.39
495.593	2580.44
495.79	1366
495.987	1216.49
496.184	1814.5
496.382	2549.72
496.579	1343.47
496.777	1654.76
496.974	3252.17
497.172	2949.07
497.37	1734.63
497.568	1554.41
497.766	3493.83
497.963	2783.19
498.161	1718.25
498.359	2133.98
498.558	3514.31
498.756	3370.96
498.954	1937.38
499.152	2394.08
499.351	3436.49
499.549	3282.89
499.747	2306.01
499.946	2293.72
500.145	3229.65
500.343	3354.57
500.542	2437.08
500.741	2496.47
500.94	3719.11
501.139	3925.96
501.338	2625.5
501.537	2944.98
501.736	4349.89
501.935	3841.99
502.134	2738.13
502.334	3086.29
502.533	4282.3
502.733	4288.45
502.932	3192.78
503.132	3268.56
503.331	4179.9
503.531	4652.98
503.731	3454.92
503.931	3469.26
504.131	4140.99
504.331	4890.55
504.531	3604.42
504.731	3854.28
504.931	4880.31
505.132	4892.6
505.332	3952.58
505.532	3858.37
505.733	5181.36
505.933	5705.64
506.134	4356.03
506.335	4069.31
506.536	5023.67
506.736	5562.28
506.937	4364.22
507.138	4327.36
507.34	6295.46
507.541	5586.86
507.742	4943.8
507.943	4415.42
508.145	5746.6
508.346	5107.63
508.548	4671.42
508.749	4624.31
508.951	5541.8
509.153	5885.86
509.354	5259.18
509.556	5482.41
509.758	6410.14
509.96	5885.86
510.163	5601.19
510.365	5658.54
510.567	6102.95
510.769	6369.18
510.972	5535.66
511.174	6061.99
511.377	6444.96
511.58	8066.95
511.782	5652.39
511.985	6043.56
512.188	7561.1
512.391	7335.82
512.594	5996.45
512.797	6485.92
513.001	7626.64
513.204	7980.93
513.407	6508.44
513.611	6393.76
513.814	7763.85
514.018	8054.66
514.222	6815.64
514.425	6891.41
514.629	7772.04
514.833	7999.37
515.037	6967.19
515.241	7032.72
515.445	7825.29
515.65	7831.43
515.854	7329.68
516.059	7344.02
516.263	8507.26
516.468	8546.17
516.672	7358.35
516.877	7573.39
517.082	8089.48
517.287	8587.13
517.492	7839.62
517.697	7509.9
517.902	8990.58
518.107	8785.79
518.313	7995.27
518.518	7726.99
518.724	9455.47
518.929	9090.93
519.135	8378.24
519.341	8105.86
519.547	9224.05
519.753	9465.71
519.959	8212.35
520.165	8316.8
520.371	9959.27
520.577	10297.19
520.784	8365.95
520.99	9037.69
521.197	9725.8
521.404	9785.19
521.61	8583.04
521.817	8769.4
522.024	10600.29
522.231	9914.22
522.438	8597.37
522.645	9543.53
522.853	9854.83
523.06	10368.87
523.268	9351.03
523.475	9316.21
523.683	10235.75
523.891	10436.45
524.098	9135.99
524.306	9564.01
524.514	10518.37
524.722	10360.67
524.931	9713.52
525.139	9498.48
525.347	10205.03
525.556	10764.12
525.764	9811.82
525.973	10145.64
526.182	10764.12
526.391	10622.81
526.6	9820.01
526.809	10020.71
527.018	10927.96
527.227	11167.57
527.436	10196.84
527.646	10006.38
527.855	11202.39
528.065	11163.48
528.275	10033
528.484	10307.43
528.694	11505.49
528.904	11446.1
529.114	10284.9
529.325	10604.38
529.535	11128.66
529.745	11743.05
529.956	10696.54
530.166	10866.52
530.377	11833.16
530.588	12304.2
530.799	11040.6
531.01	10876.76
531.221	12175.17
531.432	12347.2
531.643	11124.57
531.855	11218.77
532.066	12259.14
532.278	11915.08
532.489	11261.78
532.701	11038.55
532.913	12775.23
533.125	12480.32
533.337	10899.29
533.549	11374.42
533.762	12738.37
533.974	11988.81
534.186	11128.66
534.399	11794.25
534.612	12713.79
534.825	12502.85
535.037	11722.57
535.25	12138.31
535.464	12420.93
535.677	13143.86
535.89	11491.15
536.104	11964.23
536.317	12678.97
536.531	13014.84
536.744	12078.92
536.958	11896.65
537.172	13076.28
537.386	12984.12
537.6	12044.1
537.815	11947.85
538.029	13272.89
538.244	13444.91
538.458	12033.86
538.673	12054.34
538.888	13354.8
539.103	13649.71
539.318	12588.86
539.533	12048.2
539.748	13336.37
539.963	13061.94
540.179	12283.72
540.394	12236.61
540.61	12953.4
540.826	13309.75
541.042	12488.51
541.258	12566.34
541.474	14114.6
541.69	13748.01
541.906	12918.59
542.123	12760.89
542.339	13823.79
542.556	13483.83
542.773	12734.27
542.99	13107
543.207	13821.74
543.424	13528.88
543.641	13100.86
543.858	13430.58
544.076	13823.79
544.293	13647.66
544.511	12830.52
544.729	13078.33
544.947	13983.53
545.165	14223.14
545.383	13311.8
545.601	13465.39
545.819	14454.56
546.038	14446.37
546.256	13561.65
546.475	13602.61
546.694	15621.91
546.913	14872.35
547.132	14067.5
547.351	13879.08
547.57	14440.23
547.79	14184.23
548.009	13774.64
548.229	13858.6
548.449	14307.11
548.668	15165.21
548.888	13975.34
549.109	13987.63
549.329	15439.64
549.549	15300.37
549.77	14176.04
549.99	14266.15
550.211	15435.54
550.432	15961.87
550.653	14266.15
550.874	14624.54
551.095	16369.41
551.316	15644.43
551.538	14221.09
551.759	14946.08
551.981	15525.65
552.203	15812.37
552.424	14839.58
552.646	15238.94
552.869	15699.73
553.091	15814.41
553.313	15107.87
553.536	15097.63
553.758	16310.02
553.981	15914.77
554.204	14847.77
554.427	15208.22
554.65	16402.18
554.873	15652.63
555.097	14978.84
555.32	15265.56
555.544	16830.21
555.768	16484.1
555.992	15165.21
556.216	15783.7
556.44	16174.86
556.664	17102.59
556.888	16101.13
557.113	15828.75
557.337	16967.42
557.562	17225.47
557.787	15476.5
558.012	15810.32
558.237	16776.96
558.462	16895.74
558.688	16312.07
558.913	15916.81
559.139	16803.58
559.365	17286.9
559.591	16160.52
559.817	16221.96
560.043	17344.25
560.269	17790.7
560.496	16758.53
560.722	16178.95
560.949	17915.63
561.176	17194.75
561.403	16887.55
561.63	16643.84
561.857	17133.31
562.084	17374.97
562.312	16766.72
562.539	16811.78
562.767	18456.29
562.995	17792.75
563.223	16768.77
563.451	17121.02
563.679	17839.86
563.908	18194.15
564.136	17243.9
564.365	17612.53
564.594	17518.32
564.823	19406.55
565.052	17260.28
565.281	17051.39
565.51	18446.05
565.74	18040.56
565.969	17229.56
566.199	17837.81
566.429	18530.02
566.659	18405.1
566.889	17690.35
567.119	17547
567.35	19173.08
567.58	19513.05
567.811	18071.28
568.042	17858.29
568.273	18538.21
568.504	19285.72
568.735	17901.29
568.966	18241.26
569.198	18919.14
569.43	19441.37
569.661	18149.1
569.893	18634.47
570.125	19912.4
570.358	19869.39
570.59	18378.47
570.822	18439.91
571.055	19721.94
571.288	19949.26
571.521	18650.85
571.754	18513.64
571.987	20078.29
572.22	19640.02
572.454	18716.39
572.687	18591.46
572.921	19046.11
573.155	19746.51
573.389	19416.79
573.623	19119.84
573.858	19586.77
574.092	20336.33
574.327	19314.39
574.561	19357.4
574.796	19773.14
575.031	20297.42
575.266	18976.48
575.502	19386.07
575.737	20365
575.973	20012.75
576.209	19455.7
576.445	19668.69
576.681	19875.54
576.917	20428.49
577.153	19404.5
577.39	19406.55
577.626	20395.72
577.863	20272.84
578.1	19578.58
578.337	19519.19
578.574	20160.2
578.812	20608.71
579.049	19826.39
579.287	19781.33
579.525	20889.28
579.763	20629.19
580.001	19545.81
580.239	19693.27
580.478	21118.65
580.716	20623.05
580.955	19836.63
581.194	20088.53
581.433	21001.92
581.672	20330.19
581.911	19646.16
582.151	19781.33
582.39	20836.03
582.63	21030.59
582.87	19648.21
583.11	19693.27
583.35	20397.77
583.591	20866.75
583.831	20180.68
584.072	20479.69
584.313	20993.73
584.554	20600.52
584.795	19738.32
585.036	20215.5
585.277	21737.14
585.519	21460.66
585.761	20027.09
586.003	20043.47
586.245	21116.61
586.487	21612.21
586.729	20317.9
586.972	20215.5
587.215	21782.2
587.457	20721.35
587.7	20250.31
587.944	20573.89
588.187	20924.1
588.43	20913.86
588.674	19812.05
588.918	20205.26
589.162	21532.34
589.406	21118.65
589.65	20031.18
589.894	20979.39
590.139	21454.52
590.384	21460.66
590.629	19934.93
590.874	20356.81
591.119	20717.25
591.364	21198.52
591.61	20448.97
591.855	20223.69
592.101	21927.6
592.347	21270.2
592.593	20147.92
592.84	20379.34
593.086	21728.95
593.333	20795.07
593.58	20057.81
593.827	19777.23
594.074	20999.87
594.321	20586.18
594.568	20059.85
594.816	19848.91
595.064	21024.45
595.312	20899.52
595.56	19814.1
595.808	20252.36
596.057	21163.71
596.305	20889.28
596.554	19738.32
596.803	20053.71
597.052	21198.52
597.301	21434.04
597.551	19703.51
597.8	20209.36
598.05	20876.99
598.3	20891.33
598.55	19400.41
598.8	19855.06
599.051	20567.75
599.301	20696.77
599.552	19715.8
599.803	19902.16
600.054	20960.96
600.305	20674.24
600.556	19924.69
600.808	19891.92
601.06	19990.22
601.312	20799.17
601.564	19664.6
601.816	19304.15
602.068	21208.76
602.321	20995.78
602.574	19592.92
602.827	18869.98
603.08	20598.47
603.333	20983.49
603.587	19031.77
603.84	19453.66
604.094	20840.13
604.348	20274.89
604.602	18976.48
604.856	19433.18
605.111	20250.31
605.365	20483.78
605.62	19361.5
605.875	19121.88
606.13	20147.92
606.386	20123.34
606.641	19017.44
606.897	18939.61
607.153	19932.88
607.409	20238.03
607.665	18898.66
607.921	18710.24
608.178	19664.6
608.435	20055.76
608.692	18755.3
608.949	19091.16
609.206	20491.98
609.463	19908.3
609.721	19050.21
609.979	19035.87
610.237	19926.74
610.495	20211.4
610.753	19031.77
611.012	19121.88
611.27	20563.65
611.529	20147.92
611.788	19099.36
612.047	18829.02
612.307	19584.73
612.566	20113.1
612.826	18765.54
613.086	18509.54
613.346	19107.55
613.606	19705.56
613.867	18538.21
614.127	18546.4
614.388	19050.21
614.649	19781.33
614.91	18192.11
615.172	18648.8
615.433	19066.59
615.695	19404.5
615.957	18429.67
616.219	18069.23
616.481	19511
616.743	18681.57
617.006	17684.21
617.269	18241.26
617.532	18898.66
617.795	19142.36
618.058	17784.56
618.322	17878.77
618.586	19044.06
618.849	18437.86
619.114	18026.22
619.378	17360.63
619.642	18603.75
619.907	18931.42
620.172	17733.36
620.437	17624.82
620.702	18706.15
620.967	18134.76
621.233	17051.39
621.499	17024.76
621.765	18097.9
622.031	18398.95
622.297	16846.59
622.564	17028.86
622.83	17932.01
623.097	18345.7
623.364	17084.16
623.631	17028.86
623.899	17792.75
624.166	18126.57
624.434	16766.72
624.702	16387.85
624.97	17938.16
625.239	17340.15
625.507	16398.09
625.776	16629.51
626.045	17237.75
626.314	17430.26
626.584	16619.27
626.853	16340.74
627.123	17233.66
627.393	16506.63
627.663	16135.95
627.933	16258.82
628.204	17426.17
628.474	17190.65
628.745	15970.06
629.016	16101.13
629.287	16932.61
629.559	16680.71
629.83	15423.25
630.102	15628.05
630.374	16357.13
630.646	17207.03
630.919	15599.38
631.191	15945.48
631.464	16336.65
631.737	15986.44
632.01	15202.07
632.284	15116.06
632.557	16707.33
632.831	16232.2
633.105	14941.98
633.379	14827.29
633.654	15806.22
633.928	15943.44
634.203	14745.38
634.478	14640.93
634.753	15716.11
635.028	15660.82
635.304	14958.36
635.58	14317.35
635.856	15427.35
636.132	15327
636.408	14548.77
636.685	14343.97
636.961	15277.85
637.238	15093.53
637.515	14300.97
637.793	14008.11
638.07	15576.85
638.348	14896.92
638.626	14372.64
638.904	14298.92
639.182	14536.48
639.461	14075.69
639.74	13881.13
640.019	14022.44
640.298	13981.48
640.577	14583.59
640.857	13487.92
641.136	13422.39
641.416	14098.22
641.696	14872.35
641.977	13463.35
642.257	13258.55
642.538	14262.05
642.819	14530.34
643.1	12889.92
643.382	12834.62
643.663	14151.46
643.945	13901.61
644.227	12830.52
644.509	12531.52
644.792	14110.5
645.074	13723.44
645.357	12560.19
645.64	12361.54
645.923	13444.91
646.207	13391.67
646.49	12465.99
646.774	12199.75
647.058	13211.45
647.342	13573.94
647.627	11997
647.911	11986.76
648.196	13485.87
648.481	13184.82
648.767	11988.81
649.052	11896.65
649.338	12433.22
649.624	12470.08
649.91	11517.78
650.196	11509.58
650.483	12812.09
650.77	12988.22
651.057	11724.62
651.344	11540.3
651.631	12230.47
651.919	11915.08
652.207	11310.93
652.495	11368.27
652.783	12556.1
653.071	12564.29
653.36	10661.73
653.649	11091.8
653.938	12013.38
654.227	11974.47
654.517	11140.95
654.806	10600.29
655.096	11339.6
655.387	12046.15
655.677	10714.97
655.968	10528.61
656.258	11022.17
656.549	11777.87
656.841	10473.31
657.132	10401.63
657.424	11253.59
657.716	11415.38
658.008	10121.06
658.3	10012.52
658.592	11382.61
658.885	11564.88
659.178	9766.76
659.471	9713.52
659.765	10245.99
660.058	10723.16
660.352	9525.1
660.646	9555.82
660.94	10950.49
661.235	10833.75
661.53	9908.07
661.824	9232.24
662.12	10628.96
662.415	9959.27
662.711	9271.15
663.006	9398.13
663.302	10198.88
663.599	9793.39
663.895	9015.16
664.192	9187.19
664.489	10250.08
664.786	10243.94
665.083	8615.8
665.381	8748.92
665.678	9645.93
665.976	9965.42
666.275	8570.75
666.573	8669.05
666.872	9478
667.171	9650.03
667.47	8175.49
667.769	8318.85
668.069	9471.86
668.368	9547.63
668.668	8040.33
668.969	7985.03
669.269	9070.45
669.57	8789.88
669.871	8171.4
670.172	8236.93
670.473	9242.48
670.775	9371.5
671.077	7813
671.379	7962.5
671.681	9035.64
671.983	8793.98
672.286	7380.88
672.589	7720.84
672.892	8836.99
673.196	8568.7
673.499	7364.5
673.803	7307.15
674.107	8619.9
674.411	8378.24
674.716	7327.63
675.021	7534.48
675.326	8046.47
675.631	8425.34
675.936	6905.75
676.242	7081.88
676.548	7690.12
676.854	8451.97
677.16	6729.63
677.467	6854.55
677.774	8011.65
678.081	7552.91
678.388	7131.03
678.696	7038.87
679.004	7970.69
679.312	8171.4
679.62	6629.27
679.928	6561.69
680.237	7862.15
680.546	7045.01
680.855	6698.91
681.164	6424.48
681.474	7481.23
681.784	7620.49
682.094	6197.15
682.404	6078.37
682.715	7747.47
683.026	6641.56
683.337	5795.75
683.648	6338.46
683.959	7595.92
684.271	7157.65
684.583	5992.36
684.895	5740.46
685.208	7137.17
685.52	7055.25
685.833	6074.28
686.146	5685.16
686.46	7241.62
686.773	6852.5
687.087	5683.11
687.401	5609.39
687.716	6672.28
688.03	6813.59
688.345	5291.95
688.66	5558.19
688.975	6662.04
689.291	6668.19
689.607	5939.11
689.923	5410.73
690.239	6201.25
690.555	6469.53
690.872	5085.11
691.189	4777.91
691.506	6234.02
691.824	6442.91
692.142	5007.28
692.459	5078.96
692.778	5783.46
693.096	6191.01
693.415	5224.37
693.734	5042.1
694.053	5859.24
694.372	5435.31
694.692	4528.06
695.012	4870.07
695.332	5535.66
695.652	5791.66
695.973	4732.86
696.294	4622.27
696.615	5414.83
696.936	6076.32
697.258	4214.72
697.579	4417.47
697.902	5199.79
698.224	5279.66
698.546	4259.77
698.869	4145.09
699.192	5306.29
699.516	5541.8
699.839	4116.42
700.163	4329.41
700.487	4878.26
700.811	5941.16
701.136	3764.17
701.461	4091.84
701.786	5218.22
702.111	5588.91
702.436	3862.47
702.762	4114.37
703.088	5275.57
703.415	5648.3
703.741	4124.61
704.068	3784.65
704.395	4820.92
704.722	4992.95
705.05	3784.65
705.377	3944.39
705.705	4902.84
706.034	4802.49
706.362	3551.18
706.691	3387.34
707.02	4976.56
707.349	4743.1
707.679	3530.7
708.009	3399.63
708.339	4612.03
708.669	4501.44
709	3442.64
709.33	3211.21
709.661	4552.63
709.993	4175.81
710.324	3569.61
710.656	3336.14
710.988	4421.56
711.321	4603.83
711.653	2951.12
711.986	3487.69
712.319	3569.61
712.652	4341.69
712.986	3465.16
713.32	3145.68
713.654	4464.57
713.988	4581.31
714.323	3065.81
714.658	3000.27
714.993	3995.59
715.328	3932.1
715.664	3176.4
716	3205.07
716.336	4519.87
716.673	3727.3
717.009	3190.74
717.346	3053.52
717.683	4411.32
718.021	3921.86
718.359	2791.38
718.697	3006.42
719.035	3633.1
719.373	3512.27
719.712	2965.46
720.051	2535.39
720.39	3973.06
720.73	3727.3
721.07	2697.17
721.41	2643.93
721.75	3921.86
722.091	3633.1
722.432	2541.53
722.773	2842.58
723.114	3606.47
723.456	3534.79
723.798	2600.92
724.14	2496.47
724.482	3332.05
724.825	3690.44
725.168	2605.02
725.511	2519
725.855	3393.48
726.198	2998.23
726.542	2086.88
726.887	2760.66
727.231	3682.25
727.576	2944.98
727.921	2412.51
728.266	2054.11
728.612	3217.36
728.958	3383.24
729.304	2088.93
729.651	2668.5
729.997	2863.06
730.344	3049.43
730.691	2185.18
731.039	2373.6
731.387	3084.24
731.735	2904.02
732.083	2207.71
732.431	2234.33
732.78	2897.88
733.129	2176.99
733.479	1826.79
733.828	2146.27
734.178	2768.85
734.528	2498.52
734.879	1920.99
735.23	1814.5
735.581	3084.24
735.932	2740.18
736.283	1867.75
736.635	1732.58
736.987	3303.37
737.34	3162.06
737.692	1691.62
738.045	1834.98
738.398	2785.24
738.752	3039.19
739.105	1544.17
739.459	2191.33
739.814	3016.66
740.168	3297.23
740.523	1677.29
740.878	2002.91
741.233	2758.61
741.589	2912.21
741.945	1701.86
742.301	1851.36
742.657	3102.67
743.014	2355.16
743.371	1638.38
743.728	2250.72
744.086	2666.46
744.444	2494.43
744.802	1322.99
745.16	1601.51
745.519	2711.51
745.878	2301.92
746.237	1284.08
746.597	1744.87
746.956	2789.33
747.316	2420.7
747.677	1261.55
748.037	1361.9
748.398	2359.26
748.759	2539.48
749.121	1535.98
749.482	1660.9
749.844	2062.3
750.207	1970.15
750.569	903.15
750.932	1591.27
751.295	2955.22
751.659	2252.77
752.022	1298.41
752.386	1832.93
752.751	2252.77
753.115	1703.91
753.48	1142.77
753.845	1196.01
754.21	2273.25
754.576	2105.31
754.942	1040.37
755.308	1495.02
755.675	1912.8
756.041	2568.15
756.409	964.59
756.776	1273.84
757.144	2629.59
757.511	2373.6
757.88	1114.09
758.248	782.32
758.617	1482.73
758.986	1988.58
759.355	1196.01
759.725	1040.37
760.095	1558.5
760.465	2306.01
760.836	905.2
761.206	985.07
761.577	2179.04
761.949	1671.14
762.32	1116.14
762.692	942.07
763.065	1761.25
763.437	1609.7
763.81	819.19
764.183	989.17
764.556	2248.67
764.93	1650.66
765.304	1243.12
765.678	1288.17
766.053	1675.24
766.428	1761.25
766.803	651.25
767.178	724.98
767.554	1185.77
767.93	1601.51
768.306	671.73
768.683	638.97
769.06	1974.24
769.437	1708.01
769.814	614.39
770.192	530.42
770.57	1703.91
770.948	2324.44
771.327	913.39
771.706	499.7
772.085	1841.12
772.464	2158.56
772.844	815.09
773.224	544.76
773.605	1212.4
773.985	1495.02
774.366	765.94
774.748	983.02
775.129	1906.66
775.511	1650.66
775.893	643.06
776.276	724.98
776.658	1933.28
777.041	1521.64
777.425	440.31
777.808	557.05
778.192	1370.09
778.576	1914.85
778.961	169.98
779.346	511.99
779.731	1658.85
780.116	1040.37
780.502	499.7
780.888	552.95
781.274	1425.39
781.661	1282.03
782.048	327.67
782.435	364.54
782.823	1310.7
783.21	1406.95
783.598	450.55
783.987	471.03
784.376	1763.3
784.765	1200.11
785.154	559.1
785.544	471.03
785.933	1503.21
786.324	1128.43
786.714	620.53
787.105	251.9
787.496	1349.61
787.888	1146.86
788.279	200.7
788.671	251.9
789.064	1312.75
789.456	1499.11
789.849	122.88
790.242	276.48
790.636	1105.9
791.03	1499.11
791.424	227.32
791.818	1812.45
792.213	1574.89
792.608	1241.07
793.004	552.95
793.399	-28.67
793.795	1232.88
794.192	991.22
794.588	159.74
794.985	-20.48
795.382	1241.07
795.78	999.41
796.178	366.59
796.576	167.93
796.974	1724.39
797.373	1050.61
797.772	176.13
798.172	61.44
798.571	1171.44
798.971	1560.55
799.372	243.71
799.772	210.94
800.173	1495.02
800.574	1089.52
800.976	114.69
801.378	-59.39
801.78	753.65
802.182	540.66
802.585	237.56
802.988	71.68
803.392	808.95
803.795	765.94
804.199	8.19
804.604	192.51
805.008	1204.21
805.413	1570.79
805.819	137.21
806.224	-108.54
806.63	964.59
807.036	1173.49
807.443	94.21
807.85	235.52
808.257	1148.91
808.664	1011.7
809.072	354.3
809.48	358.39
809.889	1366
810.297	1296.36
810.706	407.55
811.116	-32.77
811.526	772.08
811.936	837.62
812.346	-94.21
812.757	-36.86
813.167	1011.7
813.579	806.9
813.99	71.68
814.402	-147.45
814.814	1486.83
815.227	841.72
815.64	-237.56
816.053	45.06
816.467	1114.09
816.88	907.25
817.294	288.76
817.709	178.17
818.124	749.56
818.539	1316.84
818.954	75.77
819.37	174.08
819.786	534.52
820.202	1142.77
820.619	-481.27
821.036	-182.27
821.453	1167.34
821.871	886.77
822.289	-126.97
822.707	-135.17
823.126	980.98
823.545	518.14
823.964	-126.97
824.384	-151.55
824.804	577.53
825.224	1003.5
825.645	163.84
826.065	-278.52
826.487	1122.29
826.908	1222.64
827.33	-16.38
827.752	212.99
828.175	786.42
828.598	1153.01
829.021	196.6
829.444	606.2
829.868	917.49
830.292	534.52
830.717	-315.39
831.142	-260.09
831.567	507.9
831.992	714.74
832.418	333.82
832.844	-247.8
833.27	813.04
833.697	745.46
834.124	-432.12
834.552	-352.25
834.979	1222.64
835.408	823.28
835.836	-303.1
836.265	-94.21
836.694	675.83
837.123	997.36
837.553	-425.98
837.983	-389.11
838.413	1134.57
838.844	954.35
839.275	-362.49
839.706	65.53
840.138	1306.6
840.57	557.05
841.003	-139.26
841.435	-126.97
841.868	475.13
842.302	555
842.735	4.1
843.169	-372.73
843.604	767.99
844.039	829.43
844.474	-352.25
844.909	-225.28
845.345	864.24
845.781	946.16
846.217	-290.81
846.654	-366.59
847.091	913.39
847.528	577.53
847.966	-440.31
848.404	-190.46
848.842	1269.74
849.281	79.87
849.72	-266.24
850.16	-397.31
850.599	507.9
851.039	407.55
851.48	-57.34
851.921	-270.33
852.362	757.75
852.803	1105.9
853.245	-671.73
853.687	-290.81
854.129	974.83
854.572	471.03
855.015	-573.43
855.459	-313.34
855.903	311.29
856.347	839.67
856.791	-202.75
857.236	-397.31
857.681	1202.16
858.127	1509.35
858.572	24.58
859.019	-327.68
859.465	868.34
859.912	653.3
860.359	-616.44
860.807	-454.65
861.255	450.55
861.703	929.78
862.151	-223.23
862.6	129.02
863.05	782.32
863.499	374.78
863.949	-305.15
864.4	-622.58
864.85	1112.05
865.301	833.52
865.752	-397.31
866.204	-274.43
866.656	380.92
867.109	985.07
867.561	-428.03
868.014	-110.59
868.468	749.56
868.921	911.35
869.376	-282.62
869.83	-346.11
870.285	542.71
870.74	348.15
871.195	-299
871.651	-313.34
872.107	1138.67
872.564	454.65
873.021	-624.63
873.478	-536.57
873.936	872.43
874.394	774.13
874.852	-372.73
875.31	-245.76
875.769	550.9
876.229	1249.26
876.688	-233.47
877.148	-364.54
877.609	473.08
878.069	339.96
878.531	-135.17
878.992	-466.94
879.454	598.01
879.916	569.34
880.378	-327.68
880.841	-372.73
881.304	112.64
881.768	124.93
882.232	-528.38
882.696	-227.32
883.161	221.18
883.626	542.71
884.091	-329.72
884.557	-348.15
885.023	149.5
885.489	767.99
885.956	-657.4
886.423	-462.84
886.89	-40.96
887.358	565.24
887.826	-464.89
888.295	-413.69
888.763	249.85
889.233	1200.11
889.702	-405.5
890.172	-499.7
890.642	315.39
891.113	280.57
891.584	-57.34
892.055	-405.5
892.527	702.45
892.999	956.4
893.472	-450.55
893.944	-233.47
894.417	540.66
894.891	262.14
895.365	-188.41
895.839	-221.18
896.314	503.8
896.789	-110.59
897.264	-444.41
897.74	-610.29
898.216	890.87
898.692	749.56
899.169	-561.14
899.646	-561.14
900.123	675.83
900.601	1097.71
901.079	-577.53
901.558	-374.78
902.037	817.14
902.516	450.55
902.996	-681.97
903.476	-653.3
903.956	315.39
904.437	716.79
904.918	-641.01
905.399	-724.98
905.881	659.45
906.363	577.53
906.846	-624.63
907.329	-438.27
907.812	102.4
908.296	579.58
908.78	-606.2
909.264	-610.29
909.749	233.47
910.234	839.67
910.719	-684.02
911.205	-284.67
911.691	28.67
912.178	612.34
912.665	-77.82
913.152	-569.34
913.64	268.28
914.128	634.87
914.616	-536.57
915.105	-450.55
915.594	477.18
916.084	1009.65
916.574	-331.77
917.064	-606.2
917.555	-10.24
918.046	581.62
918.537	-6.14
919.029	-944.11
919.521	278.52
920.013	958.45
920.506	-417.79
920.999	-684.02
921.493	737.27
921.987	309.24
922.481	-305.15
922.976	-593.91
923.471	366.59
923.967	569.34
924.462	-331.77
924.959	-491.51
925.455	636.92
925.952	495.61
926.449	-626.68
926.947	-616.44
927.445	401.4
927.944	319.48
928.442	-794.61
928.942	-659.45
929.441	696.31
929.941	145.41
930.442	-581.62
930.942	-544.76
931.443	786.42
931.945	88.06
932.447	-626.68
932.949	-555
933.451	352.25
933.954	247.8
934.458	-380.92
934.961	-567.29
935.465	186.37
935.97	61.44
936.475	-327.68
936.98	-610.29
937.486	-151.55
937.992	258.04
938.498	-575.48
939.005	-409.59
939.512	294.91
940.019	526.33
940.527	-399.35
941.035	-274.43
941.544	716.79
942.053	364.54
942.562	-165.89
943.072	-198.65
943.582	825.33
944.093	264.19
944.604	-684.02
945.115	-661.49
945.627	874.48
946.139	985.07
946.651	-548.86
947.164	-397.31
947.677	569.34
948.191	442.36
948.705	-690.17
949.219	-681.97
949.734	167.93
950.249	634.87
950.765	-520.18
951.281	-638.97
951.797	1413.1
952.314	780.28
952.831	-600.05
953.348	-827.38
953.866	700.41
954.384	223.23
954.903	-649.21
955.422	-745.46
955.941	372.73
956.461	368.63
956.981	-587.77
957.502	-385.02
958.023	622.58
958.544	458.74
959.066	-499.7
959.588	-759.8
960.11	-59.39
960.633	858.1
961.156	-573.43
961.68	-485.37
962.204	741.36
962.729	-69.63
963.253	-585.72
963.779	-28.67
964.304	532.47
964.83	962.55
965.357	-708.6
965.883	-475.13
966.411	438.27
966.938	569.34
967.466	-536.57
967.994	-786.42
968.523	249.85
969.052	899.06
969.582	-567.29
970.112	-700.41
970.642	88.06
971.173	757.75
971.704	-563.19
972.235	-380.92
972.767	555
973.3	415.74
973.832	-262.14
974.365	-790.52
974.899	544.76
975.433	589.81
975.967	-739.32
976.502	-389.11
977.037	382.97
977.572	708.6
978.108	-675.83
978.644	-798.71
979.181	1040.37
979.718	716.79
980.255	-948.21
980.793	-516.09
981.331	-231.42
981.87	688.12
982.409	-503.8
982.948	-337.91
983.488	413.69
984.028	833.52
984.569	-417.79
985.11	-491.51
985.651	743.41
986.193	536.57
986.735	-718.84
987.278	-743.41
987.821	-124.93
988.364	227.32
988.908	-450.55
989.452	-718.84
989.997	-387.07
990.542	423.93
991.088	-616.44
991.633	-165.89
992.18	202.75
992.726	-135.17
993.273	-571.38
993.821	-391.16
994.369	274.43
994.917	708.6
995.465	-731.12
996.014	-831.48
996.564	583.67
997.114	182.27
997.664	-362.49
998.215	-688.12
998.766	503.8
999.317	-90.11
999.869	-479.22
1000.421	-679.93
1000.974	688.12
1001.527	628.73
1002.081	-671.73
1002.635	-370.68
1003.189	454.65
1003.744	757.75
1004.299	-825.33
1004.854	-587.77
1005.41	794.61
1005.967	229.37
1006.523	-471.03
1007.081	-417.79
1007.638	423.93
1008.196	503.8
1008.755	-741.36
1009.313	-507.9
1009.873	671.73
1010.432	67.58
1010.992	-335.87
1011.553	-495.61
1012.114	405.5
1012.675	22.53
1013.237	-364.54
1013.799	-247.8
1014.361	612.34
1014.924	-100.35
1015.487	-806.9
1016.051	-548.86
1016.615	677.88
1017.18	485.37
1017.745	-671.73
1018.31	-208.89
1018.876	792.56
1019.442	475.13
1020.009	-495.61
1020.576	-780.28
1021.143	307.2
1021.711	708.6
1022.28	-618.49
1022.848	-532.47
1023.417	747.51
1023.987	256
1024.557	-628.73
1025.127	-686.07
1025.698	-180.22
1026.269	61.44
1026.841	-804.85
1027.413	-466.94
1027.985	139.26
1028.558	305.15
1029.131	-729.08
1029.705	-434.17
1030.279	364.54
1030.854	442.36
1031.429	-735.22
1032.004	-106.49
1032.58	651.25
1033.156	118.78
1033.733	-692.21
1034.31	-679.93
1034.887	671.73
1035.465	718.84
1036.043	-1007.6
1036.622	-567.29
1037.201	151.55
1037.781	653.3
1038.361	-675.83
1038.941	-782.32
1039.522	454.65
1040.103	806.9
1040.685	-606.2
1041.267	-350.2
1041.85	1171.44
1042.433	612.34
1043.016	-696.31
1043.6	-503.8
1044.184	-241.66
1044.769	647.16
1045.354	-511.99
1045.939	-763.89
1046.525	399.35
1047.111	511.99
1047.698	-536.57
1048.285	-845.81
1048.873	524.28
1049.461	-86.01
1050.049	-677.88
1050.638	-583.67
1051.228	6.14
1051.817	671.73
1052.407	-698.36
1052.998	-331.77
1053.589	458.74
1054.18	565.24
1054.772	-907.25
1055.365	-663.54
1055.957	505.85
1056.55	178.17
1057.144	-608.25
1057.738	-673.78
1058.333	200.7
1058.927	65.53
1059.523	-618.49
1060.118	-712.69
1060.715	30.72
1061.311	511.99
1061.908	-735.22
1062.506	-421.88
1063.103	577.53
1063.702	-4.1
1064.3	-903.15
1064.9	-770.04
1065.499	911.35
1066.099	24.58
1066.7	-698.36
1067.301	-858.1
1067.902	831.48
1068.504	704.5
1069.106	-325.63
1069.709	-389.11
1070.312	749.56
1070.915	462.84
1071.519	-638.97
1072.123	-405.5
1072.728	571.38
1073.333	217.08
1073.939	-249.85
1074.545	-616.44
1075.152	481.27
1075.759	139.26
1076.366	-821.24
1076.974	-417.79
1077.582	339.96
1078.191	671.73
1078.8	-509.94
1079.41	-899.06
1080.02	307.2
1080.63	434.17
1081.241	-94.21
1081.852	-894.96
1082.464	376.83
1083.076	344.06
1083.689	-552.95
1084.302	-552.95
1084.915	761.84
1085.529	542.71
1086.144	-700.41
1086.759	-526.33
1087.374	102.4
1087.99	245.76
1088.606	-811
1089.222	-626.68
1089.839	495.61
1090.457	294.91
1091.075	-579.58
1091.693	-954.35
1092.312	442.36
1092.931	872.43
1093.551	-708.6
1094.171	-245.76
1094.792	456.7
1095.413	102.4
1096.034	-548.86
1096.656	-667.64
1097.278	571.38
1097.901	356.35
1098.524	-712.69
1099.148	-368.63
1099.772	888.82
1100.397	360.44
1101.022	-749.56
1101.647	-632.82
1102.273	520.18
1102.899	645.11
1103.526	-1001.46
1104.153	-376.83
1104.781	647.16
1105.409	757.75
1106.038	-708.6
1106.667	-907.25
1107.296	243.71
1107.926	223.23
1108.556	-75.77
1109.187	-585.72
1109.818	282.62
1110.45	622.58
1111.082	-569.34
1111.715	-655.35
1112.348	413.69
1112.981	346.11
1113.615	-294.91
1114.25	-499.7
1114.885	274.43
1115.52	63.49
1116.156	-849.91
1116.792	-552.95
1117.428	528.38
1118.066	139.26
1118.703	-366.59
1119.341	-585.72
1119.98	704.5
1120.618	790.52
1121.258	-831.48
1121.898	-823.28
1122.538	387.07
1123.179	-159.74
1123.82	-491.51
1124.461	-448.51
1125.103	737.27
1125.746	118.78
1126.389	-352.25
1127.032	-802.8
1127.676	436.22
1128.32	780.28
1128.965	-569.34
1129.61	-518.14
1130.256	176.13
1130.902	622.58
1131.549	-638.97
1132.196	-598.01
1132.844	765.94
1133.491	673.78
1134.14	-598.01
1134.789	-667.64
1135.438	968.69
1136.088	118.78
1136.738	-741.36
1137.389	-776.18
1138.04	501.75
1138.692	913.39
1139.344	-667.64
1139.996	-583.67
1140.649	475.13
1141.303	749.56
1141.957	-503.8
1142.611	-526.33
1143.266	440.31
1143.921	411.64
1144.577	-632.82
1145.233	-659.45
1145.89	145.41
1146.547	499.7
1147.205	-790.52
1147.863	-546.81
1148.521	368.63
1149.18	618.49
1149.84	-741.36
1150.5	-661.49
1151.16	350.2
1151.821	612.34
1152.482	-581.62
1153.144	-104.45
1153.806	360.44
1154.469	454.65
1155.132	-802.8
1155.796	-573.43
1156.46	487.42
1157.124	876.53
1157.789	-679.93
1158.455	-673.78
1159.121	346.11
1159.787	94.21
1160.454	-538.62
1161.121	-464.89
1161.789	239.61
1162.457	542.71
1163.126	-520.18
1163.795	-489.46
1164.465	438.27
1165.135	153.6
1165.806	-446.46
1166.477	-487.42
1167.148	-282.62
1167.82	430.07
1168.493	-765.94
1169.166	-495.61
1169.839	86.01
1170.513	333.82
1171.187	-778.23
1171.862	-731.12
1172.537	299
1173.213	585.72
1173.889	-641.01
1174.566	-632.82
1175.243	663.54
1175.921	233.47
1176.599	-503.8
1177.278	-452.6
1177.957	-92.16
1178.636	839.67
1179.316	-450.55
1179.997	-753.65
1180.678	507.9
1181.359	718.84
1182.041	-786.42
1182.723	-755.7
1183.406	708.6
1184.089	77.82
1184.773	-798.71
1185.457	-827.38
1186.142	192.51
1186.827	1275.88
1187.513	-794.61
1188.199	-288.76
1188.886	155.65
1189.573	393.21
1190.26	-593.91
1190.948	-686.07
1191.637	24.58
1192.326	241.66
1193.015	-716.79
1193.705	-782.32
1194.396	110.59
1195.087	225.28
1195.778	-534.52
1196.47	-731.12
1197.162	415.74
1197.855	479.22
1198.548	-677.88
1199.242	-833.52
1199.936	462.84
1200.631	565.24
1201.326	-903.15
1202.022	-737.27
1202.718	673.78
1203.415	387.07
1204.112	-868.34
1204.81	-511.99
1205.508	81.92
1206.206	921.59
1206.905	-593.91
1207.605	-827.38
1208.305	282.62
1209.005	376.83
1209.706	-786.42
1210.408	-692.21
1211.11	256
1211.812	514.04
1212.515	-573.43
1213.218	-567.29
1213.922	372.73
1214.627	309.24
1215.331	-589.82
1216.037	-616.44
1216.743	-92.16
1217.449	479.22
1218.156	-446.46
1218.863	-501.75
1219.571	282.62
1220.279	767.99
1220.988	-798.71
1221.697	-600.05
1222.406	518.14
1223.117	184.32
1223.827	-536.57
1224.538	-673.78
1225.25	274.43
1225.962	440.31
1226.675	-917.49
1227.388	-577.53
1228.101	284.67
1228.815	167.93
1229.53	-550.9
1230.245	-421.88
1230.961	473.08
1231.677	176.13
1232.393	-610.29
1233.11	-647.16
1233.828	1060.85
1234.546	440.31
1235.264	-610.29
1235.983	-307.2
1236.702	970.74
1237.422	331.77
1238.143	-432.12
1238.864	-700.41
1239.585	759.8
1240.307	-280.57
1241.029	-780.28
1241.752	-339.96
1242.476	542.71
1243.2	749.56
1243.924	-571.38
1244.649	-622.58
1245.374	714.74
1246.1	833.52
1246.826	-843.76
1247.553	-602.1
1248.28	397.31
1249.008	481.27
1249.737	-729.08
1250.465	-397.31
1251.195	436.22
1251.925	753.65
1252.655	-659.45
1253.386	-413.69
1254.117	159.74
1254.849	116.73
1255.581	-692.21
1256.314	-446.46
1257.047	649.21
1257.781	481.27
1258.515	-659.45
1259.25	-223.23
1259.985	362.49
1260.721	483.32
1261.457	-483.32
1262.194	-894.96
1262.931	278.52
1263.669	729.08
1264.407	-483.32
1265.146	-708.6
1265.885	430.07
1266.625	167.93
1267.365	-561.14
1268.106	-659.45
1268.847	356.35
1269.589	215.04
1270.331	-417.79
1271.074	-542.71
1271.817	284.67
1272.561	403.45
1273.305	-335.87
1274.05	-483.32
1274.795	446.46
1275.541	415.74
1276.287	-958.45
1277.034	-798.71
1277.781	-32.77
1278.529	595.96
1279.277	-817.14
1280.026	-835.57
1280.775	747.51
1281.525	-507.9
1282.275	-888.82
1283.026	-163.84
1283.777	354.3
1284.529	401.4
1285.281	-638.97
1286.034	-901.11
1286.788	651.25
1287.541	366.59
1288.296	-921.59
1289.051	-358.39
1289.806	430.07
1290.562	563.19
1291.318	-802.8
1292.075	-534.52
1292.832	714.74
1293.59	835.57
1294.349	-675.83
1295.108	-552.95
1295.867	1036.27
1296.627	620.53
1297.387	-782.32
1298.148	-532.47
1298.91	407.55
1299.672	196.6
1300.434	-669.69
1301.197	-815.09
1301.961	1298.41
1302.725	268.28
1303.489	-479.22
1304.254	-577.53
1305.02	432.12
1305.786	720.88
1306.552	-1003.5
1307.319	-929.78
1308.087	897.01
1308.855	755.7
1309.624	-622.58
1310.393	-552.95
1311.162	-212.99
1311.933	622.58
1312.703	-598.01
1313.474	-407.55
1314.246	256
1315.018	755.7
1315.791	-264.19
1316.564	-782.32
1317.338	561.14
1318.112	282.62
1318.887	-837.62
1319.662	-565.24
1320.438	348.15
1321.214	190.46
1321.991	-393.21
1322.769	-724.98
1323.546	356.35
1324.325	-4.1
1325.104	-722.93
1325.883	-567.29
1326.663	-118.78
1327.444	434.17
1328.224	-704.5
1329.006	-524.28
1329.788	380.92
1330.571	376.83
1331.354	-266.24
1332.137	-716.79
1332.921	626.68
1333.706	12.29
1334.491	-436.22
1335.277	-460.79
1336.063	83.97
1336.849	188.41
1337.637	-770.04
1338.424	-622.58
1339.213	1019.89
1340.001	776.18
1340.791	-710.65
1341.581	-411.64
1342.371	458.74
1343.162	256
1343.953	-651.25
1344.745	-438.27
1345.537	460.79
1346.33	495.61
1347.124	-616.44
1347.918	-380.92
1348.712	897.01
1349.507	509.94
1350.303	-620.53
1351.099	-534.52
1351.896	104.45
1352.693	-153.6
1353.49	-641.01
1354.289	-620.53
1355.087	540.66
1355.887	808.95
1356.686	-514.04
1357.487	-694.26
1358.288	38.91
1359.089	270.33
1359.891	-323.58
1360.693	-602.1
1361.496	-147.45
1362.3	272.38
1363.104	-643.06
1363.908	-714.74
1364.713	804.85
1365.519	866.29
1366.325	-716.79
1367.131	-835.57
1367.939	331.77
1368.746	854
1369.555	-952.31
1370.363	-540.66
1371.173	845.81
1371.982	1296.36
1372.793	-690.17
1373.604	-909.3
1374.415	495.61
1375.227	782.32
1376.039	-804.85
1376.852	-761.84
1377.666	1064.94
1378.48	331.77
1379.295	-729.08
1380.11	-819.19
1380.925	-118.78
1381.742	884.72
1382.558	-684.02
1383.376	-714.74
1384.193	397.31
1385.012	270.33
1385.831	-663.54
1386.65	-643.06
1387.47	83.97
1388.29	124.93
1389.111	-622.58
1389.933	-868.34
1390.755	684.02
1391.578	307.2
1392.401	-843.76
1393.225	-602.1
1394.049	839.67
1394.873	286.72
1395.699	-718.84
1396.525	-524.28
1397.351	712.69
1398.178	-65.54
1399.005	-634.87
1399.833	-1085.42
1400.662	520.18
1401.491	944.11
1402.321	-663.54
1403.151	-509.94
1403.981	364.54
1404.813	548.86
1405.644	-526.33
1406.477	-780.28
1407.309	376.83
1408.143	1087.47
1408.977	-835.57
1409.811	-698.36
1410.646	937.97
1411.482	667.64
1412.318	-450.55
1413.155	-735.22
1413.992	708.6
1414.829	-24.58
1415.668	-645.11
1416.506	-282.62
1417.346	759.8
1418.186	415.74
1419.026	-706.55
1419.867	-964.59
1420.709	729.08
1421.551	626.68
1422.393	-921.59
1423.236	-503.8
1424.08	331.77
1424.924	374.78
1425.769	-727.03
1426.614	-731.12
1427.46	493.56
1428.307	122.88
1429.154	-823.28
1430.001	-788.47
1430.849	440.31
1431.698	262.14
1432.547	-964.59
1433.397	-1028.08
1434.247	647.16
1435.098	862.19
1435.949	-585.72
1436.801	-618.49
1437.653	65.53
1438.506	567.29
1439.36	-989.17
1440.214	-720.89
1441.069	569.34
1441.924	360.44
1442.78	-700.41
1443.636	-874.48
1444.493	317.44
1445.35	348.15
1446.208	-540.66
1447.067	-743.41
1447.926	411.64
1448.785	833.52
1449.645	-735.22
1450.506	-694.26
1451.367	454.65
1452.229	194.56
1453.091	-782.32
1453.954	-356.35
1454.818	233.47
1455.682	391.16
1456.546	-716.79
1457.412	-847.86
1458.277	788.47
1459.143	380.92
1460.01	-440.31
1460.878	-788.47
1461.745	372.73
1462.614	126.97
1463.483	-892.91
1464.352	-466.94
1465.223	856.05
1466.093	614.39
1466.964	-796.66
1467.836	-897.01
1468.709	724.98
1469.581	405.5
1470.455	-606.2
1471.329	-806.9
1472.203	49.15
1473.079	104.45
1473.954	-288.76
1474.831	-745.46
1475.707	124.93
1476.585	192.51
1477.463	-735.22
1478.341	-667.64
1479.22	34.82
1480.1	438.27
1480.98	-931.83
1481.861	-839.67
1482.742	423.93
1483.624	614.39
1484.506	-456.7
1485.389	-638.97
1486.273	116.73
1487.157	229.37
1488.041	-733.17
1488.926	-856.05
1489.812	399.35
1490.699	436.22
1491.585	-712.69
1492.473	-632.82
1493.361	-194.56
1494.249	249.85
1495.139	-432.12
1496.028	-608.25
1496.919	-20.48
1497.809	409.59
1498.701	-702.45
1499.593	-663.54
1500.485	348.15
1501.378	733.17
1502.272	-280.57
1503.166	-643.06
1504.061	677.88
1504.956	520.18
1505.852	-696.31
1506.749	-790.52
1507.646	524.28
1508.543	278.52
1509.442	-921.59
1510.34	-174.08
1511.24	962.55
1512.14	292.86
1513.04	-724.98
1513.941	-864.24
1514.843	1230.83
1515.745	-30.72
1516.648	-753.65
1517.551	-827.38
1518.455	-135.17
1519.359	-65.54
1520.264	-770.04
1521.17	-845.81
1522.076	178.17
1522.983	555
1523.89	-835.57
1524.798	-446.46
1525.706	368.63
1526.615	1290.22
1527.525	-780.28
1528.435	-681.97
1529.346	507.9
1530.257	151.55
1531.169	-454.65
1532.081	-716.79
1532.994	1071.09
1533.908	286.72
1534.822	-780.28
1535.737	-634.87
1536.652	419.83
1537.568	309.24
1538.484	-700.41
1539.401	-1058.8
1540.319	737.27
1541.237	-86.01
1542.156	-745.46
1543.075	-704.5
1543.995	1044.46
1544.916	1058.8
1545.837	-794.61
1546.758	-722.93
1547.68	565.24
1548.603	589.81
1549.527	-528.38
1550.451	-911.35
1551.375	503.8
1552.3	765.94
1553.226	-901.11
1554.152	-819.19
1555.079	817.14
1556.006	344.06
1556.934	-458.75
1557.863	-643.06
1558.792	897.01
1559.722	167.93
1560.652	-569.34
1561.583	-921.59
1562.514	77.82
1563.446	131.07
1564.379	-1011.7
1565.312	-507.9
1566.246	761.84
1567.18	358.39
1568.115	-585.72
1569.051	-780.28
1569.987	833.52
1570.924	937.97
1571.861	-856.05
1572.799	-593.91
1573.737	735.22
1574.676	442.36
1575.616	-503.8
1576.556	-708.6
1577.497	-47.1
1578.438	69.63
1579.38	-692.21
1580.323	-647.16
1581.266	487.42
1582.21	704.5
1583.154	-782.32
1584.099	-839.67
1585.044	407.55
1585.99	782.32
1586.937	-430.07
1587.884	-638.97
1588.832	366.59
1589.78	909.3
1590.729	-696.31
1591.679	-530.42
1592.629	307.2
1593.58	563.19
1594.531	-573.43
1595.483	-542.71
1596.435	172.03
1597.388	106.49
1598.342	-299
1599.296	-489.46
1600.251	471.03
1601.207	667.64
1602.163	-610.29
1603.119	-788.47
1604.077	794.61
1605.034	894.96
1605.993	-528.38
1606.952	-120.83
1607.911	266.24
1608.872	417.79
1609.832	-753.65
1610.794	-897.01
1611.756	600.05
1612.718	471.03
1613.681	-380.92
1614.645	-657.4
1615.609	806.9
1616.574	192.51
1617.54	-266.24
1618.506	-688.12
1619.472	737.27
1620.44	724.98
1621.408	-165.89
1622.376	-526.33
1623.345	327.67
1624.315	802.8
1625.285	-581.62
1626.256	-503.8
1627.227	530.42
1628.199	-131.07
1629.172	-493.56
1630.145	-438.27
1631.119	473.08
1632.094	1101.81
1633.069	-569.34
1634.044	-456.7
1635.02	233.47
1635.997	692.21
1636.975	-620.53
1637.953	-856.05
1638.931	993.26
1639.911	43.01
1640.89	-790.52
1641.871	-673.78
1642.852	643.06
1643.833	446.46
1644.816	-798.71
1645.798	-925.68
1646.782	972.79
1647.766	102.4
1648.75	-733.17
1649.736	-710.65
1650.721	-4.1
1651.708	421.88
1652.695	-692.21
1653.682	-495.61
1654.671	403.45
1655.66	577.53
1656.649	-649.21
1657.639	-675.83
1658.63	-10.24
1659.621	303.1
1660.613	-888.82
1661.605	-819.19
1662.598	237.56
1663.592	176.13
1664.586	-1017.84
1665.581	-888.82
1666.576	188.41
1667.572	368.63
1668.569	-651.25
1669.566	-800.76
1670.564	610.29
1671.563	767.99
1672.562	-780.28
1673.562	-331.77
1674.562	296.96
1675.563	438.27
1676.564	-501.75
1677.566	-649.21
1678.569	911.35
1679.572	-425.98
1680.576	-602.1
1681.581	-731.12
1682.586	219.13
1683.592	591.86
1684.598	-612.34
1685.605	-511.99
1686.613	735.22
1687.621	378.87
1688.63	-575.48
1689.639	-495.61
1690.649	258.04
1691.66	362.49
1692.671	-497.66
1693.683	-733.17
1694.696	55.3
1695.709	430.07
1696.722	-673.78
1697.737	-643.06
1698.752	233.47
1699.767	495.61
1700.783	-636.92
1701.8	-428.03
1702.818	389.11
1703.836	-28.67
1704.854	-827.38
1705.873	-716.79
1706.893	210.94
1707.914	315.39
1708.935	-663.54
1709.956	-716.79
1710.979	235.52
1712.002	339.96
1713.025	-561.14
1714.049	-552.95
1715.074	436.22
1716.099	419.83
1717.125	-675.83
1718.152	-899.06
1719.179	120.83
1720.207	716.79
1721.235	-182.27
1722.265	-258.04
1723.294	299
1724.325	161.79
1725.355	-573.43
1726.387	-591.86
1727.419	430.07
1728.452	585.72
1729.485	-493.56
1730.519	-755.7
1731.554	18.43
1732.589	401.4
1733.625	-806.9
1734.662	-608.25
1735.699	71.68
1736.736	700.41
1737.775	-651.25
1738.814	-745.46
1739.853	129.02
1740.894	167.93
1741.934	-561.14
1742.976	-720.89
1744.018	555
1745.061	290.81
1746.104	-735.22
1747.148	-681.97
1748.193	352.25
1749.238	436.22
1750.284	-530.42
1751.33	-796.66
1752.377	389.11
1753.425	1021.94
1754.473	-575.48
1755.522	-624.63
1756.572	753.65
1757.622	534.52
1758.673	-827.38
1759.724	-550.9
1760.776	770.04
1761.829	794.61
1762.882	-284.67
1763.936	-712.69
1764.991	96.25
1766.046	997.36
1767.102	-503.8
1768.158	-829.43
1769.215	479.22
1770.273	450.55
1771.331	-532.47
1772.39	-847.86
1773.45	348.15
1774.51	401.4
1775.571	-874.48
1776.632	-249.85
1777.694	290.81
1778.757	555
1779.82	-350.2
1780.884	-522.23
1781.949	219.13
1783.014	516.09
1784.08	-960.5
1785.147	-684.02
1786.214	151.55
1787.282	172.03
1788.35	-411.64
1789.419	-466.94
1790.489	731.12
1791.559	372.73
1792.63	-696.31
1793.702	-423.93
1794.774	317.44
1795.847	530.42
1796.92	-339.96
1797.994	-526.33
1799.069	532.47
1800.144	1150.96
1801.22	-675.83
1802.297	-342.01
1803.374	-8.19
1804.452	442.36
1805.531	-782.32
1806.61	-342.01
1807.69	536.57
1808.77	-83.97
1809.851	-622.58
1810.933	-870.39
1812.015	741.36
1813.098	53.25
1814.182	-626.68
1815.266	-567.29
1816.351	264.19
1817.437	299
1818.523	-575.48
1819.61	-542.71
1820.697	403.45
1821.785	1075.18
1822.874	-520.18
1823.963	-638.97
1825.053	307.2
1826.144	477.18
1827.235	-552.95
1828.327	-585.72
1829.42	282.62
1830.513	-53.25
1831.607	-745.46
1832.701	-628.73
1833.796	245.76
1834.892	710.65
1835.989	-821.24
1837.086	-679.93
1838.183	309.24
1839.282	317.44
1840.381	-696.31
1841.48	-704.5
1842.581	382.97
1843.682	966.64
1844.783	-237.56
1845.885	-446.46
1846.988	700.41
1848.092	511.99
1849.196	-536.57
1850.301	-452.6
1851.406	-10.24
1852.512	1124.33
1853.619	-573.43
1854.726	-749.56
1855.834	102.4
1856.943	702.45
1858.052	-735.22
1859.162	-645.11
1860.273	397.31
1861.384	759.8
1862.496	-634.87
1863.608	-800.76
1864.721	417.79
1865.835	135.17
1866.95	-761.84
1868.065	-694.26
1869.181	184.32
1870.297	538.62
1871.414	-294.91
1872.532	-772.08
1873.65	126.97
1874.769	161.79
1875.889	-794.61
1877.009	-251.9
1878.13	491.51
1879.252	776.18
1880.374	-546.81
1881.497	-708.6
1882.62	360.44
1883.745	221.18
1884.87	-815.09
1885.995	-827.38
1887.121	194.56
1888.248	100.35
1889.376	-815.09
1890.504	-649.21
1891.632	378.87
1892.762	186.37
1893.892	-780.28
1895.023	-540.66
1896.154	98.3
1897.286	301.05
1898.419	-772.08
1899.552	-542.71
1900.686	595.96
1901.821	405.5
1902.956	-739.32
1904.092	-606.2
1905.229	833.52
1906.366	563.19
1907.504	-624.63
1908.643	-628.73
1909.782	647.16
