Data from led2700K_USB4H112691__6__12-55-24-100.txt Node

Date: Tue Dec 17 12:55:24 CET 2024
User: Etudiants TP
Spectrometer: USB4H11269
Trigger mode: 4
Integration Time (sec): 1.000000E0
Scans to average: 1
Electric dark correction enabled: true
Nonlinearity correction enabled: false
Boxcar width: 0
XAxis mode: Wavelengths
Number of Pixels in Spectrum: 3648
>>>>>Begin Spectral Data<<<<<
286.377	-1608.17
286.631	-1608.17
286.884	-1608.17
287.138	-1634.79
287.391	-1659.37
287.644	-817.65
287.896	-606.71
288.149	800.24
288.401	499.19
288.653	-557.56
288.905	-502.26
289.157	867.83
289.409	267.77
289.661	-408.06
289.912	-756.21
290.163	394.75
290.414	818.68
290.665	-616.95
290.916	-639.48
291.166	560.63
291.417	1129.97
291.667	-702.97
291.917	-272.89
292.167	550.39
292.417	384.51
292.666	-768.5
292.916	-598.52
293.165	548.34
293.414	724.47
293.663	-877.04
293.912	-811.51
294.16	779.76
294.408	787.96
294.657	-793.08
294.905	-436.73
295.153	718.33
295.4	720.37
295.648	-803.32
295.895	-735.73
296.143	206.33
296.39	861.68
296.637	-629.24
296.884	-639.48
297.13	689.65
297.377	787.96
297.623	-545.27
297.869	-346.62
298.115	798.2
298.361	808.44
298.606	-756.21
298.852	-680.44
299.097	591.35
299.342	1097.2
299.587	-395.77
299.832	-545.27
300.077	769.52
300.322	691.7
300.566	-664.05
300.81	-516.6
301.054	703.99
301.298	699.89
301.542	-268.8
301.785	-350.71
302.029	972.27
302.272	767.48
302.515	-758.26
302.758	-555.51
303.001	835.06
303.244	685.56
303.486	-559.61
303.729	-852.47
303.971	1072.62
304.213	816.63
304.455	-836.08
304.696	-287.23
304.938	316.92
305.179	736.76
305.421	-508.41
305.662	-406.01
305.903	351.74
306.143	331.26
306.384	-385.53
306.625	-489.98
306.865	558.58
307.105	282.11
307.345	-496.12
307.585	-496.12
307.825	89.6
308.064	802.29
308.304	-627.19
308.543	-729.59
308.782	634.36
309.021	1023.47
309.26	-365.05
309.499	-578.04
309.737	978.42
309.976	671.22
310.214	-815.6
310.452	-619
310.69	1170.93
310.928	273.92
311.165	-647.67
311.403	-647.67
311.64	902.64
311.878	695.8
312.115	-492.02
312.351	-522.74
312.588	359.93
312.825	998.9
313.061	-766.45
313.298	19.97
313.534	327.16
313.77	828.92
314.006	-641.53
314.241	-621.05
314.477	785.91
314.713	1271.28
314.948	-561.66
315.183	216.57
315.418	921.07
315.653	589.3
315.888	-713.21
316.122	-446.97
316.357	351.74
316.591	849.4
316.825	-541.18
317.059	-590.33
317.293	990.7
317.527	493.05
317.76	-614.9
317.994	-487.93
318.227	685.56
318.46	1203.69
318.693	-688.63
318.926	-549.37
319.159	101.89
319.391	601.59
319.624	-803.32
319.856	-496.12
320.088	851.44
320.321	703.99
320.552	-242.17
320.784	-621.05
321.016	880.11
321.247	40.45
321.479	-416.25
321.71	-317.95
321.941	-109.05
322.172	1119.73
322.403	-623.09
322.633	-330.23
322.864	818.68
323.094	218.62
323.325	-27.14
323.555	-688.63
323.785	243.2
324.014	333.31
324.244	-477.69
324.474	-309.76
324.703	869.87
324.933	896.5
325.162	-406.01
325.391	-897.52
325.62	9.73
325.848	949.75
326.077	-506.36
326.306	-428.54
326.534	763.38
326.762	904.69
326.99	-588.28
327.218	-295.42
327.446	892.4
327.674	-23.04
327.901	-590.33
328.129	-700.92
328.356	839.16
328.583	310.78
328.81	-670.2
329.037	-424.44
329.264	542.2
329.491	884.21
329.717	-446.97
329.944	-684.53
330.17	458.23
330.396	267.77
330.622	-758.26
330.848	-379.39
331.074	613.88
331.299	1496.55
331.525	-668.15
331.75	-578.04
331.975	1035.76
332.201	245.24
332.426	-915.95
332.65	-700.92
332.875	-150.01
333.1	531.96
333.324	-676.34
333.549	-688.63
333.773	425.47
333.997	609.78
334.221	-477.69
334.445	-604.66
334.668	679.41
334.892	1132.01
335.116	-483.83
335.339	-557.56
335.562	-8.7
335.785	564.73
336.008	-358.91
336.231	-584.18
336.454	-31.23
336.676	919.03
336.899	-471.54
337.121	-279.04
337.343	99.84
337.566	548.34
337.788	-555.51
338.009	-707.06
338.231	120.32
338.453	507.38
338.674	3229.13
338.896	-532.98
339.117	-41.47
339.338	1119.73
339.559	-729.59
339.78	-569.85
340.001	116.22
340.222	880.11
340.442	-549.37
340.663	-240.12
340.883	783.86
341.103	402.94
341.323	-575.99
341.543	-360.95
341.763	818.68
341.983	337.4
342.202	-664.05
342.422	-655.86
342.641	1134.06
342.861	312.83
343.08	-164.35
343.299	-694.77
343.518	658.93
343.736	615.93
343.955	-555.51
344.174	-700.92
344.392	851.44
344.61	134.65
344.829	-635.38
345.047	-602.61
345.265	796.15
345.483	949.75
345.7	-635.38
345.918	-125.44
346.136	167.42
346.353	894.45
346.57	-715.25
346.788	-705.01
347.005	458.23
347.222	7.68
347.438	-123.39
347.655	-559.61
347.872	202.24
348.088	1039.86
348.305	-350.71
348.521	-614.9
348.737	232.96
348.953	949.75
349.169	-197.12
349.385	-522.74
349.601	493.05
349.817	-131.58
350.032	-113.15
350.248	-350.71
350.463	1377.77
350.678	-131.58
350.893	-643.57
351.108	-680.44
351.323	177.66
351.538	835.06
351.753	-659.96
351.967	-571.9
352.182	833.01
352.396	237.05
352.61	-678.39
352.824	-524.79
353.038	642.55
353.252	912.88
353.466	-416.25
353.68	-619
353.894	380.41
354.107	148.99
354.32	-422.39
354.534	-655.86
354.747	740.85
354.96	-6.66
355.173	-426.49
355.386	-729.59
355.599	452.09
355.811	204.28
356.024	-692.73
356.236	-477.69
356.449	349.69
356.661	443.9
356.873	-729.59
357.085	-870.9
357.297	689.65
357.509	624.12
357.721	-549.37
357.933	-571.9
358.144	294.4
358.356	302.59
358.567	-377.34
358.778	-758.26
358.989	916.98
359.2	228.86
359.411	-479.74
359.622	-365.05
359.833	613.88
360.044	278.01
360.254	-481.78
360.465	-729.59
360.675	540.15
360.885	454.14
361.096	-682.49
361.306	-541.18
361.516	228.86
361.726	474.62
361.935	-881.14
362.145	-516.6
362.355	536.06
362.564	572.92
362.774	-721.4
362.983	-797.17
363.192	941.55
363.401	196.09
363.61	-565.75
363.819	-303.61
364.028	441.85
364.237	908.79
364.445	-563.7
364.654	-365.05
364.862	556.54
365.071	138.75
365.279	-430.59
365.487	-625.14
365.695	593.4
365.903	478.71
366.111	-672.25
366.319	-508.41
366.527	605.69
366.734	312.83
366.942	-379.39
367.149	-760.31
367.357	-596.47
367.564	1043.95
367.771	-461.3
367.978	-766.45
368.185	249.34
368.392	386.55
368.599	-317.95
368.806	-737.78
369.013	-84.48
369.219	556.54
369.426	-803.32
369.632	-285.18
369.838	1113.58
370.044	585.21
370.251	-582.14
370.457	-549.37
370.663	837.11
370.868	392.7
371.074	-549.37
371.28	-629.24
371.485	-166.4
371.691	734.71
371.896	-569.85
372.102	-627.19
372.307	1113.58
372.512	912.88
372.717	-645.62
372.922	-201.21
373.127	95.74
373.332	372.22
373.537	-528.89
373.741	-481.78
373.946	665.08
374.151	335.35
374.355	-733.68
374.559	-494.07
374.764	181.76
374.968	-225.79
375.172	-653.81
375.376	-188.93
375.58	583.16
375.784	24.06
375.987	-780.79
376.191	-555.51
376.395	278.01
376.598	331.26
376.802	-655.86
377.005	-317.95
377.208	286.2
377.412	81.41
377.615	-848.37
377.818	-623.09
378.021	237.05
378.224	-82.43
378.426	-578.04
378.629	-758.26
378.832	781.81
379.034	683.51
379.237	-813.56
379.439	-778.74
379.642	714.23
379.844	622.07
380.046	-870.9
380.248	-735.73
380.45	-137.73
380.652	-170.49
380.854	-580.09
381.056	-649.72
381.258	304.64
381.459	423.42
381.661	-745.97
381.862	-393.72
382.064	-41.47
382.265	253.44
382.467	-737.78
382.668	-578.04
382.869	828.92
383.07	427.51
383.271	-457.21
383.472	-676.34
383.673	609.78
383.874	437.75
384.074	-414.2
384.275	-711.16
384.476	570.87
384.676	1058.29
384.876	-836.08
385.077	-602.61
385.277	796.15
385.477	966.13
385.677	-709.11
385.878	-532.98
386.078	376.31
386.278	275.96
386.477	-311.8
386.677	-266.75
386.877	531.96
387.077	654.84
387.276	-356.86
387.476	-483.83
387.675	380.41
387.875	1023.47
388.074	-694.77
388.273	-481.78
388.472	904.69
388.671	-195.07
388.87	-709.11
389.069	-213.5
389.268	-39.42
389.467	40.45
389.666	-756.21
389.865	-201.21
390.063	615.93
390.262	738.8
390.461	-696.82
390.659	-670.2
390.857	695.8
391.056	679.41
391.254	-647.67
391.452	-578.04
391.65	749.04
391.849	501.24
392.047	-397.82
392.245	-152.06
392.442	232.96
392.64	536.06
392.838	-350.71
393.036	-471.54
393.233	286.2
393.431	200.19
393.629	-868.85
393.826	-442.87
394.023	253.44
394.221	-147.97
394.418	-410.11
394.615	-270.84
394.812	-90.62
395.01	769.52
395.207	-606.71
395.404	-641.53
395.601	1009.14
395.797	357.88
395.994	-713.21
396.191	-551.42
396.388	286.2
396.584	574.97
396.781	-207.36
396.977	-66.05
397.174	615.93
397.37	-80.38
397.567	-342.52
397.763	-639.48
397.959	333.31
398.155	415.23
398.352	-496.12
398.548	-336.38
398.744	482.81
398.94	425.47
399.136	-684.53
399.331	-377.34
399.527	402.94
399.723	556.54
399.919	-385.53
400.114	-498.17
400.31	99.84
400.505	613.88
400.701	-489.98
400.896	-594.42
401.092	153.09
401.287	306.68
401.482	-725.49
401.678	-350.71
401.873	656.89
402.068	626.17
402.263	-408.06
402.458	-449.02
402.653	126.46
402.848	531.96
403.043	-432.63
403.237	-664.05
403.432	112.13
403.627	-129.53
403.822	-866.8
404.016	-623.09
404.211	185.85
404.405	591.35
404.6	-147.97
404.794	-217.6
404.989	538.1
405.183	183.81
405.377	-281.08
405.571	-178.69
405.766	675.32
405.96	370.17
406.154	-557.56
406.348	-469.5
406.542	443.9
406.736	572.92
406.93	-705.01
407.124	-365.05
407.318	321.02
407.511	337.4
407.705	-358.91
407.899	-598.52
408.092	525.82
408.286	441.85
408.48	-680.44
408.673	-616.95
408.867	116.22
409.06	425.47
409.253	-410.11
409.447	-414.2
409.64	617.97
409.833	484.86
410.026	-301.56
410.22	-348.67
410.413	646.65
410.606	497.14
410.799	-688.63
410.992	-555.51
411.185	355.83
411.378	968.18
411.571	-449.02
411.764	-365.05
411.956	548.34
412.149	515.58
412.342	-244.22
412.534	-438.78
412.727	716.28
412.92	335.35
413.112	-500.22
413.305	-352.76
413.497	796.15
413.69	585.21
413.882	-403.96
414.075	-233.98
414.267	484.86
414.459	368.12
414.652	-557.56
414.844	-414.2
415.036	419.32
415.228	742.9
415.42	-86.53
415.612	-500.22
415.804	882.16
415.997	589.3
416.188	-231.93
416.38	-311.8
416.572	71.17
416.764	593.4
416.956	-551.42
417.148	-516.6
417.34	304.64
417.531	-8.7
417.723	-504.31
417.915	-369.15
418.107	157.18
418.298	499.19
418.49	-352.76
418.681	-209.4
418.873	884.21
419.064	484.86
419.256	-344.57
419.447	-457.21
419.639	632.31
419.83	966.13
420.021	-295.42
420.213	-434.68
420.404	413.18
420.595	564.73
420.786	-139.77
420.978	-201.21
421.169	687.61
421.36	421.37
421.551	-354.81
421.742	-418.3
421.933	966.13
422.124	654.84
422.315	-320
422.506	-414.2
422.697	558.58
422.888	335.35
423.079	50.69
423.27	-442.87
423.461	427.51
423.652	421.37
423.842	-481.78
424.033	-238.08
424.224	703.99
424.415	1117.68
424.605	-209.4
424.796	-340.47
424.987	818.68
425.177	681.46
425.368	-532.98
425.558	-434.68
425.749	527.86
425.939	437.75
426.13	126.46
426.32	-107.01
426.511	462.33
426.701	337.4
426.892	-260.6
427.082	-303.61
427.272	355.83
427.463	585.21
427.653	-72.19
427.843	-41.47
428.034	1082.86
428.224	751.09
428.414	-311.8
428.604	-154.11
428.795	867.83
428.985	904.69
429.175	93.69
429.365	56.83
429.555	826.87
429.745	617.97
429.935	-45.57
430.126	3.58
430.316	943.6
430.506	957.94
430.696	-113.15
430.886	232.96
431.076	914.93
431.266	581.11
431.456	343.55
431.645	62.98
431.835	595.45
432.025	976.37
432.215	-141.82
432.405	198.14
432.595	974.32
432.785	812.53
432.975	9.73
433.164	-193.02
433.354	523.77
433.544	1134.06
433.734	-66.05
433.923	318.97
434.113	810.48
434.303	931.31
434.493	183.81
434.682	173.57
434.872	1132.01
435.062	552.44
435.251	179.71
435.441	192
435.631	1467.88
435.82	882.16
436.01	101.89
436.2	204.28
436.389	935.41
436.579	1639.91
436.768	601.59
436.958	638.45
437.147	1195.5
437.337	1412.59
437.527	515.58
437.716	445.95
437.906	1502.7
438.095	1187.31
438.285	361.98
438.474	638.45
438.664	1605.1
438.853	1465.83
439.043	577.02
439.232	374.27
439.422	1490.41
439.611	1555.94
439.8	472.57
439.99	902.64
440.179	1748.45
440.369	2039.26
440.558	454.14
440.748	814.58
440.937	1426.92
441.126	1353.2
441.316	994.8
441.505	738.8
441.695	2006.5
441.884	2303.45
442.073	828.92
442.263	828.92
442.452	1803.75
442.642	2018.79
442.831	878.07
443.02	1234.41
443.21	2252.25
443.399	2620.89
443.588	1109.49
443.778	1322.48
443.967	2624.98
444.156	2100.7
444.346	1129.97
444.535	1101.3
444.725	2665.94
444.914	2176.48
445.103	1224.17
445.293	1478.12
445.482	2639.32
445.671	2360.8
445.861	1523.18
446.05	1543.66
446.239	2434.52
446.429	2272.73
446.618	1412.59
446.807	1742.31
446.997	2678.23
447.186	2555.35
447.376	1590.76
447.565	1795.56
447.754	2969.04
447.944	2989.52
448.133	1752.55
448.322	1664.49
448.512	2469.34
448.701	3302.86
448.891	1852.9
449.08	1990.11
449.269	2213.34
449.459	2264.54
449.648	1824.23
449.838	1795.56
450.027	2426.33
450.217	2371.04
450.406	1637.86
450.595	2008.55
450.785	2788.82
450.974	2809.3
451.164	1785.32
451.353	1844.71
451.543	2692.57
451.732	2985.43
451.922	1605.1
452.111	1680.87
452.301	2213.34
452.49	2074.08
452.68	1527.27
452.869	2078.18
453.059	2242.01
453.249	2784.73
453.438	1138.16
453.628	1629.67
453.817	2301.4
454.007	2313.69
454.197	1076.72
454.386	1508.84
454.576	2639.32
454.765	2491.87
454.955	1510.89
455.145	1340.91
455.334	2164.19
455.524	1783.27
455.714	1492.46
455.904	1164.78
456.093	2817.49
456.283	2127.33
456.473	1150.45
456.663	1097.2
456.852	1920.48
457.042	2053.6
457.232	1099.25
457.422	1723.88
457.612	2018.79
457.802	2276.83
457.991	701.94
458.181	785.91
458.371	2022.88
458.561	2035.17
458.751	990.7
458.941	757.24
459.131	1652.2
459.321	1465.83
459.511	1123.82
459.701	777.72
459.891	1768.93
460.081	1326.57
460.271	753.14
460.461	740.85
460.651	2463.19
460.841	2139.62
461.032	814.58
461.222	747
461.412	1445.35
461.602	2461.15
461.792	364.03
461.983	458.23
462.173	1662.44
462.363	2158.05
462.554	697.85
462.744	671.22
462.934	1836.52
463.125	1592.81
463.315	476.66
463.505	736.76
463.696	1707.49
463.886	1230.32
464.077	495.1
464.267	495.1
464.458	1916.39
464.648	1258.99
464.839	687.61
465.03	572.92
465.22	1236.46
465.411	1555.94
465.601	486.9
465.792	515.58
465.983	1261.04
466.174	1512.94
466.364	153.09
466.555	527.86
466.746	1656.29
466.937	1230.32
467.128	388.6
467.319	503.29
467.51	1654.25
467.701	2244.06
467.891	368.12
468.082	327.16
468.274	1267.18
468.465	771.57
468.656	493.05
468.847	89.6
469.038	945.65
469.229	1146.35
469.42	462.33
469.612	216.57
469.803	1478.12
469.994	1392.11
470.185	450.04
470.377	175.61
470.568	1302
470.76	1308.14
470.951	261.63
471.142	452.09
471.334	1433.07
471.526	1218.03
471.717	560.63
471.909	-57.86
472.1	902.64
472.292	1220.08
472.484	81.41
472.675	228.86
472.867	1195.5
473.059	1605.1
473.251	173.57
473.443	159.23
473.635	1115.63
473.826	1285.61
474.018	42.5
474.21	288.25
474.402	1228.27
474.595	1623.53
474.787	241.15
474.979	286.2
475.171	1005.04
475.363	517.62
475.555	-82.43
475.748	105.98
475.94	1228.27
476.132	865.78
476.325	-51.71
476.517	523.77
476.71	1865.19
476.902	769.52
477.095	85.5
477.287	359.93
477.48	1297.9
477.673	1056.24
477.865	134.65
478.058	105.98
478.251	1244.65
478.444	1416.68
478.636	296.44
478.829	67.07
479.022	1222.13
479.215	1236.46
479.408	321.02
479.601	552.44
479.794	816.63
479.988	820.72
480.181	411.13
480.374	140.8
480.567	1265.13
480.76	1637.86
480.954	159.23
481.147	-186.88
481.341	1015.28
481.534	814.58
481.728	255.48
481.921	519.67
482.115	1302
482.308	1562.09
482.502	93.69
482.696	235
482.89	1877.48
483.084	1197.55
483.277	247.29
483.471	370.17
483.665	1537.51
483.859	2223.58
484.053	-182.78
484.247	26.11
484.442	1029.62
484.636	1213.93
484.83	206.33
485.024	284.16
485.219	1080.82
485.413	826.87
485.608	179.71
485.802	503.29
485.997	1629.67
486.191	1015.28
486.386	214.52
486.58	454.14
486.775	1281.52
486.97	1525.22
487.165	257.53
487.36	347.64
487.555	1248.75
487.75	1101.3
487.945	450.04
488.14	108.03
488.335	941.55
488.53	998.9
488.725	232.96
488.92	491
489.116	1727.97
489.311	1338.86
489.507	75.26
489.702	796.15
489.898	1691.11
490.093	972.27
490.289	732.66
490.485	239.1
490.68	900.59
490.876	1822.18
491.072	249.34
491.268	476.66
491.464	1750.5
491.66	1535.46
491.856	437.75
492.052	798.2
492.248	1580.52
492.445	1375.72
492.641	312.83
492.837	312.83
493.034	1766.89
493.23	1752.55
493.427	822.77
493.623	421.37
493.82	1523.18
494.017	2020.83
494.214	388.6
494.41	343.55
494.607	1621.48
494.804	1207.79
495.001	622.07
495.198	652.79
495.395	1750.5
495.593	1615.34
495.79	515.58
495.987	495.1
496.184	1021.42
496.382	1539.56
496.579	441.85
496.777	613.88
496.974	2149.86
497.172	1660.39
497.37	773.62
497.568	380.41
497.766	2317.79
497.963	1697.25
498.161	564.73
498.359	718.33
498.558	2180.57
498.756	1910.24
498.954	517.62
499.152	1064.43
499.351	1943.01
499.549	1777.12
499.747	742.9
499.946	609.78
500.145	1633.77
500.343	1646.05
500.542	577.02
500.741	749.04
500.94	1877.48
501.139	2094.56
501.338	703.99
501.537	1009.14
501.736	2223.58
501.935	1945.06
502.134	581.11
502.334	712.18
502.533	2115.04
502.733	1916.39
502.932	849.4
503.132	859.63
503.331	1723.88
503.531	2049.5
503.731	919.03
503.931	703.99
504.131	1629.67
504.331	2094.56
504.531	865.78
504.731	968.18
504.931	1951.2
505.132	1836.52
505.332	953.84
505.532	790
505.733	2006.5
505.933	2614.74
506.134	919.03
506.335	636.41
506.536	1498.6
506.736	2219.49
506.937	925.17
507.138	716.28
507.34	2663.9
507.541	1893.86
507.742	1162.73
507.943	663.03
508.145	1908.19
508.346	1363.44
508.548	685.56
508.749	736.76
508.951	1433.07
509.153	1613.29
509.354	785.91
509.556	935.41
509.758	2033.12
509.96	1478.12
510.163	1029.62
510.365	1048.05
510.567	1646.05
510.769	1613.29
510.972	845.3
511.174	1220.08
511.377	1484.27
511.58	2670.04
511.782	804.34
511.985	884.21
512.188	2504.15
512.391	2065.89
512.594	816.63
512.797	1072.62
513.001	2178.53
513.204	2469.34
513.407	955.89
513.611	949.75
513.814	2153.95
514.018	2330.08
514.222	1058.29
514.425	957.94
514.629	2055.65
514.833	2008.55
515.037	1060.34
515.241	757.24
515.445	1519.08
515.65	1512.94
515.854	1125.87
516.059	976.37
516.263	2078.18
516.468	2108.9
516.672	1000.94
516.877	982.51
517.082	1412.59
517.287	2053.6
517.492	1125.87
517.697	951.79
517.902	2196.96
518.107	1596.9
518.313	1025.52
518.518	931.31
518.724	2463.19
518.929	1852.9
519.135	1187.31
519.341	648.69
519.547	1951.2
519.753	2082.27
519.959	902.64
520.165	855.54
520.371	2237.92
520.577	2719.19
520.784	781.81
520.99	1150.45
521.197	2108.9
521.404	1936.87
521.61	720.37
521.817	792.05
522.024	2450.91
522.231	1748.45
522.438	630.26
522.645	1277.42
522.853	1760.74
523.06	2141.66
523.268	1091.06
523.475	1068.53
523.683	2088.42
523.891	2055.65
524.098	736.76
524.306	1058.29
524.514	1938.91
524.722	1883.62
524.931	1019.38
525.139	990.7
525.347	1410.54
525.556	1850.85
525.764	1113.58
525.973	1353.2
526.182	2104.8
526.391	1705.45
526.6	966.13
526.809	1080.82
527.018	2063.84
527.227	2117.09
527.436	1138.16
527.646	1121.77
527.855	2178.53
528.065	1908.19
528.275	998.9
528.484	990.7
528.694	2231.77
528.904	2049.5
529.114	986.61
529.325	1150.45
529.535	1568.23
529.745	2229.73
529.956	1005.04
530.166	933.36
530.377	2178.53
530.588	2661.85
530.799	1351.15
531.01	939.51
531.221	2393.56
531.432	2526.68
531.643	1209.84
531.855	1615.34
532.066	2379.23
532.278	2151.9
532.489	1318.38
532.701	1025.52
532.913	2620.89
533.125	2293.21
533.337	884.21
533.549	1048.05
533.762	2500.06
533.974	1842.66
534.186	982.51
534.399	1316.33
534.612	2528.73
534.825	2184.67
535.037	1410.54
535.25	1527.27
535.464	1893.86
535.677	2657.75
535.89	1095.15
536.104	1457.64
536.317	2145.76
536.531	2309.6
536.744	1570.28
536.958	1381.87
537.172	2368.99
537.386	2194.91
537.6	1322.48
537.815	1310.19
538.029	2489.82
538.244	2797.01
538.458	1115.63
538.673	1246.7
538.888	2637.27
539.103	2848.21
539.318	1687.01
539.533	1261.04
539.748	2313.69
539.963	2051.55
540.179	1154.54
540.394	1179.12
540.61	1959.39
540.826	2289.12
541.042	1310.19
541.258	1461.74
541.474	3114.45
541.69	2321.88
541.906	1480.17
542.123	1418.73
542.339	2414.04
542.556	2112.99
542.773	1504.75
542.99	1437.16
543.207	2239.97
543.424	2268.64
543.641	1711.59
543.858	1857
544.076	2260.45
544.293	2088.42
544.511	1345
544.729	1437.16
544.947	2313.69
545.165	2420.19
545.383	1404.39
545.601	1412.59
545.819	2657.75
546.038	2293.21
546.256	1635.82
546.475	1414.63
546.694	3272.14
546.913	2995.67
547.132	2153.95
547.351	1541.61
547.57	2010.59
547.79	2180.57
548.009	1531.37
548.229	1457.64
548.449	2336.22
548.668	2858.45
548.888	1674.73
549.109	1568.23
549.329	2760.15
549.549	2966.99
549.77	1660.39
549.99	1781.22
550.211	2901.46
550.432	3081.68
550.653	1568.23
550.874	1764.84
551.095	3300.81
551.316	2401.76
551.538	1486.31
551.759	1719.78
551.981	2616.79
552.203	2874.84
552.424	1498.6
552.646	2002.4
552.869	2412
553.091	2645.46
553.313	1906.15
553.536	1658.34
553.758	2805.21
553.981	2571.74
554.204	1541.61
554.427	1748.45
554.65	2983.38
554.873	2309.6
555.097	1447.4
555.32	1695.21
555.544	3167.7
555.768	2797.01
555.992	1609.19
556.216	1646.05
556.44	2325.98
556.664	2899.41
556.888	2199.01
557.113	1463.79
557.337	3364.3
557.562	3126.74
557.787	1641.96
558.012	1838.56
558.237	2719.19
558.462	2686.42
558.688	2121.18
558.913	1951.2
559.139	2477.53
559.365	3018.19
559.591	1820.13
559.817	1678.82
560.043	3102.16
560.269	3194.32
560.496	2293.21
560.722	2031.07
560.949	3390.92
561.176	2334.17
561.403	1928.67
561.63	2211.29
561.857	2502.11
562.084	2473.43
562.312	1609.19
562.539	1992.16
562.767	3513.8
562.995	2792.92
563.223	1988.07
563.451	2141.66
563.679	2923.99
563.908	3016.15
564.136	2178.53
564.365	2227.68
564.594	2506.2
564.823	4267.45
565.052	2194.91
565.281	1906.15
565.51	3292.62
565.74	2921.94
565.969	1924.58
566.199	2264.54
566.429	3292.62
566.659	3341.77
566.889	2256.35
567.119	2354.65
567.35	3821
567.58	3599.82
567.811	2665.94
568.042	2309.6
568.273	3257.81
568.504	3562.95
568.735	2481.63
568.966	2485.72
569.198	3442.12
569.43	3825.09
569.661	2739.67
569.893	3083.73
570.125	4101.57
570.358	3841.48
570.59	2678.23
570.822	2592.22
571.055	3925.44
571.288	3943.88
571.521	2612.7
571.754	2928.08
571.987	4476.35
572.22	3941.83
572.454	3014.1
572.687	3077.59
572.921	3491.27
573.155	3886.53
573.389	3679.69
573.623	3491.27
573.858	4117.95
574.092	4388.29
574.327	3362.25
574.561	3767.75
574.796	3941.83
575.031	4582.84
575.266	3333.58
575.502	3583.43
575.737	4705.72
575.973	4482.49
576.209	3743.17
576.445	3495.37
576.681	4355.52
576.917	4703.67
577.153	3694.02
577.39	3866.05
577.626	4728.25
577.863	4857.27
578.1	3743.17
578.337	4056.51
578.574	4779.45
578.812	5283.25
579.049	4263.36
579.287	4115.91
579.525	5422.51
579.763	5459.37
580.001	4197.82
580.239	4445.63
580.478	5965.22
580.716	5596.59
580.955	4779.45
581.194	4756.92
581.433	5930.41
581.672	5680.55
581.911	4597.18
582.151	4666.81
582.39	5735.85
582.63	6280.61
582.87	5025.2
583.11	5023.16
583.35	5430.7
583.591	5975.46
583.831	5465.52
584.072	5705.13
584.313	6462.88
584.554	6385.05
584.795	5529
585.036	5893.54
585.277	7472.53
585.519	6933.91
585.761	5369.26
586.003	5774.76
586.245	6819.22
586.487	7628.17
586.729	6184.35
586.972	6018.47
587.215	7994.76
587.457	6774.17
587.7	6473.12
587.944	6466.97
588.187	7316.88
588.43	7118.23
588.674	6243.74
588.918	6389.15
589.162	7800.2
589.406	7249.3
589.65	6487.45
589.894	7560.59
590.139	7953.8
590.384	8177.03
590.629	6720.92
590.874	7146.9
591.119	7597.45
591.364	8240.51
591.61	7304.59
591.855	7280.02
592.101	8994.17
592.347	8527.23
592.593	7413.13
592.84	8009.09
593.086	9248.11
593.333	8381.82
593.58	7562.64
593.827	7759.24
594.074	8732.03
594.321	8740.22
594.568	7806.34
594.816	7896.46
595.064	9022.84
595.312	8992.12
595.56	8068.48
595.808	8574.33
596.057	9661.8
596.305	9102.71
596.554	8285.57
596.803	8609.15
597.052	9579.89
597.301	10100.07
597.551	8603
597.8	8930.68
598.05	9979.24
598.3	9524.59
598.55	8861.05
598.8	8977.78
599.051	9477.49
599.301	9604.46
599.552	8854.9
599.803	9289.07
600.054	10513.76
600.305	10173.8
600.556	9502.06
600.808	9469.3
601.06	10304.87
601.312	10458.46
601.564	9657.71
601.816	9344.37
602.068	11302.23
602.321	11083.09
602.574	9612.65
602.827	9489.78
603.08	10839.39
603.333	11218.26
603.587	9985.38
603.84	10040.68
604.094	11328.85
604.348	11054.42
604.602	9981.29
604.856	10153.32
605.111	11523.41
605.365	11681.1
605.62	10382.69
605.875	10257.76
606.13	11537.74
606.386	11656.53
606.641	10489.18
606.897	10450.27
607.153	11275.6
607.409	11926.86
607.665	10442.08
607.921	10653.02
608.178	11734.35
608.435	12043.59
608.692	10878.3
608.949	10818.91
609.206	12490.05
609.463	12191.05
609.721	11224.4
609.979	11472.21
610.237	12166.47
610.495	12666.17
610.753	11789.64
611.012	11640.14
611.27	13131.06
611.529	12594.5
611.788	11582.8
612.047	11607.37
612.307	12281.16
612.566	12922.17
612.826	11636.05
613.086	11699.53
613.346	12225.86
613.606	12883.26
613.867	11775.31
614.127	12162.37
614.388	12612.93
614.649	13329.72
614.91	11779.4
615.172	11994.44
615.433	12608.83
615.695	12918.07
615.957	12229.96
616.219	12148.04
616.481	13378.87
616.743	12670.27
617.006	11814.22
617.269	12201.29
617.532	13186.36
617.795	13239.61
618.058	12186.95
618.322	12123.46
618.586	13180.21
618.849	12956.99
619.114	12549.44
619.378	11734.35
619.642	13266.23
619.907	13436.21
620.172	12254.53
620.437	12393.79
620.702	13344.05
620.967	12873.02
621.233	12373.32
621.499	12143.94
621.765	13018.43
622.031	13415.73
622.297	11988.3
622.564	12381.51
622.83	12942.65
623.097	13929.77
623.364	12430.66
623.631	12672.32
623.899	13518.13
624.166	13452.59
624.434	12461.38
624.702	12014.92
624.97	13591.86
625.239	12918.07
625.507	12178.76
625.776	12180.81
626.045	12803.39
626.314	13344.05
626.584	12197.19
626.853	12180.81
627.123	13032.76
627.393	12664.13
627.663	11879.75
627.933	12313.92
628.204	13356.34
628.474	13331.76
628.745	11984.2
629.016	12483.91
629.287	13114.68
629.559	12801.34
629.83	11699.53
630.102	12035.4
630.374	12668.22
630.646	13421.88
630.919	12008.78
631.191	12234.05
631.464	12983.61
631.737	12488
632.01	11677.01
632.284	11677.01
632.557	13176.12
632.831	13106.49
633.105	11609.42
633.379	11752.78
633.654	12322.12
633.928	12696.89
634.203	11957.58
634.478	11629.9
634.753	12813.63
635.028	12705.09
635.304	11758.92
635.58	11328.85
635.856	12854.59
636.132	12500.29
636.408	11552.08
636.685	11560.27
636.961	12465.47
637.238	12602.69
637.515	11664.72
637.793	11214.16
638.07	12735.81
638.348	12399.94
638.626	11599.18
638.904	11664.72
639.182	11726.16
639.461	11722.06
639.74	11214.16
640.019	11496.78
640.298	11363.67
640.577	12240.2
640.857	10939.74
641.136	11234.64
641.416	11656.53
641.696	12494.15
641.977	11046.23
642.257	11128.15
642.538	11949.39
642.819	12465.47
643.1	10825.05
643.382	10288.48
643.663	11933
643.945	12010.82
644.227	10786.14
644.509	10706.27
644.792	12160.33
645.074	11617.61
645.357	10448.22
645.64	10435.94
645.923	11562.32
646.207	11820.36
646.49	10347.87
646.774	10247.52
647.058	11328.85
647.342	11488.59
647.627	10192.23
647.911	10206.56
648.196	11767.12
648.481	11472.21
648.767	10190.18
649.052	10247.52
649.338	10882.39
649.624	10886.49
649.91	10024.3
650.196	10218.85
650.483	11464.02
650.77	11320.66
651.057	10255.72
651.344	10327.39
651.631	10853.72
651.919	10657.12
652.207	9772.39
652.495	9852.27
652.783	10911.07
653.071	10698.08
653.36	9438.58
653.649	9608.56
653.938	10507.62
654.227	10757.47
654.517	9829.74
654.806	9461.1
655.096	10009.96
655.387	10784.09
655.677	9467.25
655.968	9299.31
656.258	10048.87
656.549	10650.97
656.841	9436.53
657.132	9229.68
657.424	9860.46
657.716	10175.84
658.008	9141.62
658.3	9043.32
658.592	10159.46
658.885	10294.63
659.178	8832.38
659.471	8834.43
659.765	9463.15
660.058	9782.63
660.352	8428.93
660.646	8562.05
660.94	10286.44
661.235	9684.33
661.53	9080.18
661.824	8279.43
662.12	9567.6
662.415	8936.82
662.711	8437.12
663.006	8416.64
663.302	9137.52
663.599	8830.33
663.895	8113.54
664.192	8271.23
664.489	9747.82
664.786	9342.32
665.083	7937.41
665.381	8066.44
665.678	8846.71
665.976	9110.9
666.275	7701.9
666.573	7918.98
666.872	8539.52
667.171	8865.14
667.47	7603.6
667.769	7726.47
668.069	9119.09
668.368	8807.8
668.668	7380.37
668.969	7323.02
669.269	8519.04
669.57	8275.33
669.871	7437.71
670.172	7511.44
670.473	8732.03
670.775	8717.69
671.077	7122.32
671.379	7212.43
671.681	8412.54
671.983	8291.71
672.286	6968.73
672.589	7050.64
672.892	8195.46
673.196	8101.25
673.499	6897.05
673.803	7044.5
674.107	8160.64
674.411	7806.34
674.716	6743.45
675.021	6899.09
675.326	7550.35
675.631	8144.26
675.936	6516.12
676.242	6587.8
676.548	7462.29
676.854	8160.64
677.16	6380.96
677.467	6421.92
677.774	7417.23
678.081	7390.61
678.388	6776.22
678.696	6446.49
679.004	7703.95
679.312	7884.17
679.62	6333.86
679.928	6479.26
680.237	7552.4
680.546	6690.2
680.855	6309.28
681.164	5938.6
681.474	7208.34
681.784	7386.51
682.094	6129.06
682.404	5883.3
682.715	7361.94
683.026	6350.24
683.337	5744.04
683.648	5995.94
683.959	7204.24
684.271	7040.4
684.583	5658.03
684.895	5383.6
685.208	6931.86
685.52	6872.47
685.833	5914.02
686.146	5397.93
686.46	7044.5
686.773	6411.68
687.087	5483.95
687.401	5318.06
687.716	6489.5
688.03	6514.08
688.345	5088.69
688.66	5385.65
688.975	6346.14
689.291	6389.15
689.607	5590.44
689.923	5270.96
690.239	6102.43
690.555	6487.45
690.872	4955.57
691.189	4791.73
691.506	6127.01
691.824	6419.87
692.142	4777.4
692.459	4974
692.778	5582.25
693.096	6008.23
693.415	5168.56
693.734	5021.11
694.053	5633.45
694.372	5252.53
694.692	4423.1
695.012	4691.38
695.332	5483.95
695.652	5590.44
695.973	4709.82
696.294	4406.72
696.615	5432.75
696.936	5926.31
697.258	4177.34
697.579	4429.24
697.902	4967.86
698.224	5281.2
698.546	4259.26
698.869	4226.5
699.192	4875.7
699.516	5526.96
699.839	4122.05
700.163	4285.89
700.487	4781.5
700.811	5782.95
701.136	3900.87
701.461	4042.18
701.786	5193.14
702.111	5733.8
702.436	3749.32
702.762	4128.19
703.088	5283.25
703.415	5553.58
703.741	3939.78
704.068	3743.17
704.395	4746.68
704.722	5006.77
705.05	3708.36
705.377	3763.65
705.705	4742.58
706.034	4548.03
706.362	3358.16
706.691	3362.25
707.02	4957.62
707.349	4771.26
707.679	3554.76
708.009	3247.57
708.339	4502.97
708.669	4525.5
709	3259.85
709.33	3333.58
709.661	4361.66
709.993	4306.37
710.324	3390.92
710.656	3173.84
710.988	4472.25
711.321	4511.16
711.653	3012.05
711.986	3444.17
712.319	3741.13
712.652	4382.14
712.986	3511.75
713.32	3175.89
713.654	4531.64
713.988	4351.42
714.323	3102.16
714.658	3210.7
714.993	4021.7
715.328	3968.45
715.664	3171.79
716	3251.66
716.336	4455.87
716.673	3640.78
717.009	3108.3
717.346	2932.18
717.683	4425.15
718.021	3734.98
718.359	2588.12
718.697	2762.2
719.035	3661.26
719.373	3595.72
719.712	3075.54
720.051	2514.39
720.39	4040.13
720.73	3771.85
721.07	2536.92
721.41	2590.17
721.75	3980.74
722.091	3608.01
722.432	2493.91
722.773	2807.25
723.114	3378.64
723.456	3552.71
723.798	2471.39
724.14	2475.48
724.482	3298.77
724.825	3501.51
725.168	2725.33
725.511	2432.47
725.855	3524.04
726.198	3243.47
726.542	2285.02
726.887	2751.96
727.231	3640.78
727.576	3050.96
727.921	2405.85
728.266	2196.96
728.612	3251.66
728.958	3524.04
729.304	2229.73
729.651	2735.57
729.997	2817.49
730.344	3057.11
730.691	2033.12
731.039	2409.95
731.387	3020.24
731.735	2837.97
732.083	2272.73
732.431	2325.98
732.78	2944.47
733.129	2379.23
733.479	1789.41
733.828	2244.06
734.178	2833.88
734.528	2383.32
734.879	2026.98
735.23	1871.33
735.581	2989.52
735.932	2813.4
736.283	1789.41
736.635	1811.94
736.987	3315.15
737.34	3206.61
737.692	1738.21
738.045	1764.84
738.398	2833.88
738.752	3132.88
739.105	1547.75
739.459	2170.33
739.814	2981.33
740.168	3055.06
740.523	1650.15
740.878	1979.87
741.233	2684.38
741.589	3091.92
741.945	1826.28
742.301	1830.37
742.657	3145.17
743.014	2551.26
743.371	1717.73
743.728	2248.16
744.086	2493.91
744.444	2520.54
744.802	1361.39
745.16	1455.59
745.519	2797.01
745.878	2317.79
746.237	1408.49
746.597	1619.43
746.956	2942.42
747.316	2309.6
747.677	1306.09
748.037	1557.99
748.398	2305.5
748.759	2432.47
749.121	1736.17
749.482	1654.25
749.844	2018.79
750.207	1916.39
750.569	984.56
750.932	1553.9
751.295	2936.28
751.659	2489.82
752.022	1220.08
752.386	1891.81
752.751	2231.77
753.115	1875.43
753.48	1138.16
753.845	1383.91
754.21	2272.73
754.576	2123.23
754.942	1023.47
755.308	1482.22
755.675	1861.09
756.041	2629.08
756.409	837.11
756.776	1457.64
757.144	2797.01
757.511	2393.56
757.88	1148.4
758.248	785.91
758.617	1410.54
758.986	2063.84
759.355	1254.89
759.725	1197.55
760.095	1590.76
760.465	2334.17
760.836	835.06
761.206	1060.34
761.577	2330.08
761.949	1674.73
762.32	1326.57
762.692	822.77
763.065	1801.7
763.437	1699.3
763.81	843.25
764.183	937.46
764.556	2293.21
764.93	1830.37
765.304	1316.33
765.678	1220.08
766.053	1773.03
766.428	1908.19
766.803	665.08
767.178	851.44
767.554	1314.28
767.93	1570.28
768.306	687.61
768.683	687.61
769.06	1981.92
769.437	1727.97
769.814	597.49
770.192	642.55
770.57	1613.29
770.948	2373.08
771.327	908.79
771.706	620.02
772.085	1859.04
772.464	2069.98
772.844	744.95
773.224	536.06
773.605	1068.53
773.985	1490.41
774.366	816.63
774.748	1101.3
775.129	2020.83
775.511	1873.38
775.893	654.84
776.276	790
776.658	1981.92
777.041	1617.38
777.425	368.12
777.808	579.06
778.192	1383.91
778.576	1910.24
778.961	353.79
779.346	515.58
779.731	1682.92
780.116	994.8
780.502	597.49
780.888	564.73
781.274	1367.53
781.661	1279.47
782.048	345.59
782.435	392.7
782.823	1437.16
783.21	1426.92
783.598	476.66
783.987	587.26
784.376	1725.93
784.765	1181.17
785.154	636.41
785.544	404.99
785.933	1547.75
786.324	1082.86
786.714	595.45
787.105	198.14
787.496	1355.24
787.888	1056.24
788.279	198.14
788.671	278.01
789.064	1308.14
789.456	1347.05
789.849	155.13
790.242	278.01
790.636	1095.15
791.03	1359.34
791.424	261.63
791.818	1916.39
792.213	1566.18
792.608	1293.8
793.004	441.85
793.399	91.65
793.795	1261.04
794.192	1074.67
794.588	259.58
794.985	-74.24
795.382	1244.65
795.78	1056.24
796.178	404.99
796.576	253.44
796.974	1736.17
797.373	1123.82
797.772	181.76
798.172	146.94
798.571	1115.63
798.971	1486.31
799.372	300.54
799.772	214.52
800.173	1658.34
800.574	1127.92
800.976	237.05
801.378	28.16
801.78	904.69
802.182	671.22
802.585	282.11
802.988	89.6
803.392	916.98
803.795	728.56
804.199	144.89
804.604	310.78
805.008	1195.5
805.413	1617.38
805.819	132.61
806.224	-33.28
806.63	1011.18
807.036	1187.31
807.443	206.33
807.85	323.07
808.257	1017.33
808.664	951.79
809.072	605.69
809.48	278.01
809.889	1297.9
810.297	1230.32
810.706	566.78
811.116	93.69
811.526	810.48
811.936	853.49
812.346	-70.14
812.757	122.37
813.167	1013.23
813.579	841.2
813.99	130.56
814.402	-82.43
814.814	1527.27
815.227	822.77
815.64	-129.53
816.053	-4.61
816.467	1256.94
816.88	951.79
817.294	247.29
817.709	142.85
818.124	859.63
818.539	1345
818.954	148.99
819.37	249.34
819.786	603.64
820.202	1146.35
820.619	-369.15
821.036	-231.93
821.453	1207.79
821.871	1015.28
822.289	-139.77
822.707	-197.12
823.126	1068.53
823.545	558.58
823.964	-102.91
824.384	-82.43
824.804	552.44
825.224	994.8
825.645	175.61
826.065	-197.12
826.487	1109.49
826.908	1107.44
827.33	15.87
827.752	335.35
828.175	888.31
828.598	1125.87
829.021	265.72
829.444	656.89
829.868	1033.71
830.292	515.58
830.717	-154.11
831.142	-299.52
831.567	601.59
831.992	726.52
832.418	400.89
832.844	-266.75
833.27	867.83
833.697	837.11
834.124	-342.52
834.552	-301.56
834.979	1385.96
835.408	935.41
835.836	-350.71
836.265	-137.73
836.694	554.49
837.123	966.13
837.553	-377.34
837.983	-500.22
838.413	1037.81
838.844	925.17
839.275	-336.38
839.706	65.02
840.138	1340.91
840.57	491
841.003	-170.49
841.435	-29.18
841.868	568.82
842.302	650.74
842.735	-86.53
843.169	-317.95
843.604	919.03
844.039	824.82
844.474	-287.23
844.909	-270.84
845.345	949.75
845.781	896.5
846.217	-289.28
846.654	-426.49
847.091	904.69
847.528	624.12
847.966	-340.47
848.404	-184.83
848.842	1254.89
849.281	19.97
849.72	-217.6
850.16	-268.8
850.599	523.77
851.039	417.27
851.48	81.41
851.921	-266.75
852.362	777.72
852.803	1074.67
853.245	-571.9
853.687	-246.27
854.129	943.6
854.572	357.88
855.015	-438.78
855.459	-334.33
855.903	343.55
856.347	953.84
856.791	-244.22
857.236	-365.05
857.681	1197.55
858.127	1422.83
858.572	85.5
859.019	-360.95
859.465	1021.42
859.912	671.22
860.359	-483.83
860.807	-363
861.255	353.79
861.703	998.9
862.151	-209.4
862.6	261.63
863.05	830.96
863.499	361.98
863.949	-303.61
864.4	-471.54
864.85	1228.27
865.301	859.63
865.752	-356.86
866.204	-377.34
866.656	323.07
867.109	1023.47
867.561	-414.2
868.014	-88.57
868.468	859.63
868.921	910.83
869.376	-324.09
869.83	-381.43
870.285	669.17
870.74	413.18
871.195	-213.5
871.651	-242.17
872.107	1191.41
872.564	437.75
873.021	-520.7
873.478	-610.81
873.936	892.4
874.394	812.53
874.852	-375.29
875.31	-82.43
875.769	689.65
876.229	1297.9
876.688	-182.78
877.148	-399.87
877.609	456.19
878.069	370.17
878.531	-121.34
878.992	-479.74
879.454	574.97
879.916	577.02
880.378	-287.23
880.841	-412.15
881.304	134.65
881.768	232.96
882.232	-453.11
882.696	-272.89
883.161	97.79
883.626	632.31
884.091	-340.47
884.557	-438.78
885.023	220.67
885.489	826.87
885.956	-676.34
886.423	-557.56
886.89	108.03
887.358	728.56
887.826	-426.49
888.295	-328.19
888.763	288.25
889.233	1168.88
889.702	-334.33
890.172	-406.01
890.642	445.95
891.113	515.58
891.584	-47.62
892.055	-344.57
892.527	851.44
892.999	953.84
893.472	-510.46
893.944	-158.21
894.417	556.54
894.891	138.75
895.365	-264.7
895.839	-219.64
896.314	646.65
896.789	-166.4
897.264	-371.19
897.74	-651.77
898.216	835.06
898.692	777.72
899.169	-487.93
899.646	-479.74
900.123	665.08
900.601	1080.82
901.079	-575.99
901.558	-297.47
902.037	962.03
902.516	648.69
902.996	-639.48
903.476	-532.98
903.956	468.47
904.437	660.98
904.918	-467.45
905.399	-614.9
905.881	777.72
906.363	775.67
906.846	-594.42
907.329	-346.62
907.812	77.31
908.296	671.22
908.78	-635.38
909.264	-545.27
909.749	222.72
910.234	884.21
910.719	-612.85
911.205	-236.03
911.691	44.54
912.178	644.6
912.665	15.87
913.152	-514.55
913.64	232.96
914.128	767.48
914.616	-487.93
915.105	-446.97
915.594	515.58
916.084	1091.06
916.574	-360.95
917.064	-631.29
917.555	138.75
918.046	683.51
918.537	5.63
919.029	-866.8
919.521	323.07
920.013	974.32
920.506	-320
920.999	-563.7
921.493	794.1
921.987	361.98
922.481	-315.9
922.976	-434.68
923.471	359.93
923.967	519.67
924.462	-377.34
924.959	-377.34
925.455	663.03
925.952	437.75
926.449	-657.91
926.947	-545.27
927.445	456.19
927.944	294.4
928.442	-737.78
928.942	-684.53
929.441	689.65
929.941	140.8
930.442	-619
930.942	-477.69
931.443	759.28
931.945	124.41
932.447	-647.67
932.949	-473.59
933.451	314.88
933.954	417.27
934.458	-326.14
934.961	-549.37
935.465	163.33
935.97	310.78
936.475	-406.01
936.98	-588.28
937.486	-96.77
937.992	288.25
938.498	-506.36
939.005	-514.55
939.512	286.2
940.019	599.54
940.527	-356.86
941.035	-297.47
941.544	656.89
942.053	347.64
942.562	-188.93
943.072	-147.97
943.582	720.37
944.093	294.4
944.604	-713.21
945.115	-483.83
945.627	888.31
946.139	966.13
946.651	-537.08
947.164	-373.24
947.677	499.19
948.191	482.81
948.705	-668.15
949.219	-659.96
949.734	357.88
950.249	714.23
950.765	-473.59
951.281	-594.42
951.797	1476.07
952.314	796.15
952.831	-594.42
953.348	-733.68
953.866	708.09
954.384	265.72
954.903	-539.13
955.422	-721.4
955.941	394.75
956.461	417.27
956.981	-541.18
957.502	-377.34
958.023	665.08
958.544	527.86
959.066	-481.78
959.588	-686.58
960.11	93.69
960.633	888.31
961.156	-545.27
961.68	-487.93
962.204	835.06
962.729	77.31
963.253	-602.61
963.779	46.59
964.304	593.4
964.83	892.4
965.357	-717.3
965.883	-471.54
966.411	402.94
966.938	556.54
967.466	-393.72
967.994	-819.7
968.523	306.68
969.052	1039.86
969.582	-545.27
970.112	-631.29
970.642	130.56
971.173	790
971.704	-670.2
972.235	-307.71
972.767	556.54
973.3	357.88
973.832	-375.29
974.365	-711.16
974.899	536.06
975.433	605.69
975.967	-733.68
976.502	-412.15
977.037	433.66
977.572	990.7
978.108	-600.57
978.644	-770.55
979.181	1150.45
979.718	646.65
980.255	-975.35
980.793	-377.34
981.331	-285.18
981.87	722.42
982.409	-512.5
982.948	-301.56
983.488	310.78
984.028	853.49
984.569	-397.82
985.11	-504.31
985.651	785.91
986.193	589.3
986.735	-807.41
987.278	-621.05
987.821	-29.18
988.364	359.93
988.908	-387.58
989.452	-600.57
989.997	-264.7
990.542	585.21
991.088	-676.34
991.633	-221.69
992.18	267.77
992.726	-82.43
993.273	-471.54
993.821	-475.64
994.369	372.22
994.917	781.81
995.465	-739.83
996.014	-803.32
996.564	691.7
997.114	243.2
997.664	-213.5
998.215	-592.37
998.766	458.23
999.317	-45.57
999.869	-446.97
1000.421	-659.96
1000.974	689.65
1001.527	663.03
1002.081	-705.01
1002.635	-303.61
1003.189	478.71
1003.744	749.04
1004.299	-762.36
1004.854	-588.28
1005.41	820.72
1005.967	329.21
1006.523	-545.27
1007.081	-385.53
1007.638	572.92
1008.196	503.29
1008.755	-659.96
1009.313	-408.06
1009.873	630.26
1010.432	81.41
1010.992	-317.95
1011.553	-391.67
1012.114	437.75
1012.675	-45.57
1013.237	-399.87
1013.799	-285.18
1014.361	630.26
1014.924	-76.29
1015.487	-711.16
1016.051	-553.46
1016.615	695.8
1017.18	544.25
1017.745	-614.9
1018.31	-115.2
1018.876	908.79
1019.442	499.19
1020.009	-451.07
1020.576	-844.28
1021.143	372.22
1021.711	726.52
1022.28	-588.28
1022.848	-594.42
1023.417	757.24
1023.987	329.21
1024.557	-610.81
1025.127	-713.21
1025.698	5.63
1026.269	50.69
1026.841	-782.84
1027.413	-473.59
1027.985	220.67
1028.558	423.42
1029.131	-735.73
1029.705	-391.67
1030.279	433.66
1030.854	484.86
1031.429	-643.57
1032.004	-238.08
1032.58	753.14
1033.156	-12.8
1033.733	-619
1034.31	-623.09
1034.887	558.58
1035.465	722.42
1036.043	-838.13
1036.622	-582.14
1037.201	302.59
1037.781	675.32
1038.361	-666.1
1038.941	-754.16
1039.522	497.14
1040.103	816.63
1040.685	-590.33
1041.267	-254.46
1041.85	1232.37
1042.433	654.84
1043.016	-592.37
1043.6	-504.31
1044.184	-221.69
1044.769	593.4
1045.354	-463.35
1045.939	-721.4
1046.525	357.88
1047.111	450.04
1047.698	-375.29
1048.285	-756.21
1048.873	509.43
1049.461	44.54
1050.049	-649.72
1050.638	-598.52
1051.228	44.54
1051.817	783.86
1052.407	-670.2
1052.998	-262.65
1053.589	534.01
1054.18	654.84
1054.772	-778.74
1055.365	-709.11
1055.957	462.33
1056.55	187.9
1057.144	-518.65
1057.738	-606.71
1058.333	302.59
1058.927	144.89
1059.523	-588.28
1060.118	-690.68
1060.715	1.54
1061.311	650.74
1061.908	-696.82
1062.506	-375.29
1063.103	396.79
1063.702	-43.52
1064.3	-846.32
1064.9	-682.49
1065.499	1019.38
1066.099	179.71
1066.7	-659.96
1067.301	-860.66
1067.902	810.48
1068.504	794.1
1069.106	-332.28
1069.709	-393.72
1070.312	781.81
1070.915	437.75
1071.519	-651.77
1072.123	-414.2
1072.728	556.54
1073.333	335.35
1073.939	-291.32
1074.545	-553.46
1075.152	658.93
1075.759	101.89
1076.366	-655.86
1076.974	-449.02
1077.582	245.24
1078.191	730.61
1078.8	-498.17
1079.41	-827.89
1080.02	359.93
1080.63	419.32
1081.241	-98.81
1081.852	-903.67
1082.464	464.38
1083.076	415.23
1083.689	-721.4
1084.302	-504.31
1084.915	769.52
1085.529	525.82
1086.144	-535.03
1086.759	-522.74
1087.374	67.07
1087.99	400.89
1088.606	-684.53
1089.222	-557.56
1089.839	552.44
1090.457	286.2
1091.075	-485.88
1091.693	-899.57
1092.312	472.57
1092.931	974.32
1093.551	-670.2
1094.171	-262.65
1094.792	417.27
1095.413	181.76
1096.034	-604.66
1096.656	-590.33
1097.278	568.82
1097.901	337.4
1098.524	-651.77
1099.148	-295.42
1099.772	955.89
1100.397	290.3
1101.022	-705.01
1101.647	-555.51
1102.273	417.27
1102.899	695.8
1103.526	-942.58
1104.153	-375.29
1104.781	646.65
1105.409	759.28
1106.038	-772.6
1106.667	-877.04
1107.296	294.4
1107.926	271.87
1108.556	-143.87
1109.187	-557.56
1109.818	359.93
1110.45	650.74
1111.082	-436.73
1111.715	-553.46
1112.348	507.38
1112.981	376.31
1113.615	-281.08
1114.25	-457.21
1114.885	169.47
1115.52	148.99
1116.156	-807.41
1116.792	-580.09
1117.428	617.97
1118.066	173.57
1118.703	-328.19
1119.341	-535.03
1119.98	654.84
1120.618	929.27
1121.258	-799.22
1121.898	-748.02
1122.538	411.13
1123.179	-53.76
1123.82	-465.4
1124.461	-498.17
1125.103	671.22
1125.746	142.85
1126.389	-444.92
1127.032	-688.63
1127.676	409.08
1128.32	890.35
1128.965	-492.02
1129.61	-436.73
1130.256	138.75
1130.902	744.95
1131.549	-604.66
1132.196	-500.22
1132.844	814.58
1133.491	663.03
1134.14	-594.42
1134.789	-563.7
1135.438	1017.33
1136.088	253.44
1136.738	-696.82
1137.389	-752.12
1138.04	507.38
1138.692	908.79
1139.344	-752.12
1139.996	-659.96
1140.649	452.09
1141.303	622.07
1141.957	-459.26
1142.611	-543.22
1143.266	402.94
1143.921	462.33
1144.577	-500.22
1145.233	-580.09
1145.89	128.51
1146.547	579.06
1147.205	-782.84
1147.863	-506.36
1148.521	515.58
1149.18	638.45
1149.84	-793.08
1150.5	-653.81
1151.16	450.04
1151.821	691.7
1152.482	-588.28
1153.144	-59.9
1153.806	462.33
1154.469	536.06
1155.132	-827.89
1155.796	-549.37
1156.46	591.35
1157.124	910.83
1157.789	-659.96
1158.455	-612.85
1159.121	407.03
1159.787	142.85
1160.454	-563.7
1161.121	-477.69
1161.789	359.93
1162.457	611.83
1163.126	-600.57
1163.795	-551.42
1164.465	466.42
1165.135	216.57
1165.806	-483.83
1166.477	-532.98
1167.148	-295.42
1167.82	421.37
1168.493	-825.84
1169.166	-375.29
1169.839	73.21
1170.513	437.75
1171.187	-754.16
1171.862	-641.53
1172.537	364.03
1173.213	482.81
1173.889	-639.48
1174.566	-565.75
1175.243	769.52
1175.921	173.57
1176.599	-444.92
1177.278	-354.81
1177.957	11.78
1178.636	822.77
1179.316	-451.07
1179.997	-885.23
1180.678	554.49
1181.359	697.85
1182.041	-690.68
1182.723	-758.26
1183.406	769.52
1184.089	140.8
1184.773	-711.16
1185.457	-786.93
1186.142	228.86
1186.827	1304.04
1187.513	-639.48
1188.199	-193.02
1188.886	173.57
1189.573	321.02
1190.26	-532.98
1190.948	-639.48
1191.637	24.06
1192.326	310.78
1193.015	-782.84
1193.705	-741.88
1194.396	183.81
1195.087	239.1
1195.778	-440.83
1196.47	-641.53
1197.162	456.19
1197.855	613.88
1198.548	-561.66
1199.242	-899.57
1199.936	544.25
1200.631	679.41
1201.326	-834.04
1202.022	-739.83
1202.718	828.92
1203.415	507.38
1204.112	-856.56
1204.81	-573.94
1205.508	282.11
1206.206	945.65
1206.905	-659.96
1207.605	-721.4
1208.305	355.83
1209.005	331.26
1209.706	-702.97
1210.408	-745.97
1211.11	259.58
1211.812	595.45
1212.515	-522.74
1213.218	-619
1213.922	345.59
1214.627	325.12
1215.331	-465.4
1216.037	-590.33
1216.743	3.58
1217.449	466.42
1218.156	-442.87
1218.863	-500.22
1219.571	237.05
1220.279	730.61
1220.988	-770.55
1221.697	-479.74
1222.406	675.32
1223.117	187.9
1223.827	-535.03
1224.538	-639.48
1225.25	351.74
1225.962	396.79
1226.675	-922.1
1227.388	-446.97
1228.101	351.74
1228.815	73.21
1229.53	-549.37
1230.245	-516.6
1230.961	536.06
1231.677	253.44
1232.393	-653.81
1233.11	-647.67
1233.828	1013.23
1234.546	517.62
1235.264	-541.18
1235.983	-367.1
1236.702	1074.67
1237.422	452.09
1238.143	-262.65
1238.864	-668.15
1239.585	671.22
1240.307	-238.08
1241.029	-889.33
1241.752	-311.8
1242.476	638.45
1243.2	781.81
1243.924	-532.98
1244.649	-524.79
1245.374	753.14
1246.1	880.11
1246.826	-844.28
1247.553	-518.65
1248.28	593.4
1249.008	519.67
1249.737	-795.12
1250.465	-406.01
1251.195	458.23
1251.925	810.48
1252.655	-713.21
1253.386	-315.9
1254.117	312.83
1254.849	200.19
1255.581	-629.24
1256.314	-512.5
1257.047	703.99
1257.781	548.34
1258.515	-739.83
1259.25	-182.78
1259.985	419.32
1260.721	454.14
1261.457	-436.73
1262.194	-870.9
1262.931	237.05
1263.669	730.61
1264.407	-457.21
1265.146	-795.12
1265.885	443.9
1266.625	294.4
1267.365	-655.86
1268.106	-674.29
1268.847	525.82
1269.589	269.82
1270.331	-465.4
1271.074	-473.59
1271.817	507.38
1272.561	404.99
1273.305	-311.8
1274.05	-426.49
1274.795	425.47
1275.541	351.74
1276.287	-926.19
1277.034	-811.51
1277.781	85.5
1278.529	605.69
1279.277	-807.41
1280.026	-819.7
1280.775	824.82
1281.525	-328.19
1282.275	-909.81
1283.026	-205.31
1283.777	390.65
1284.529	364.03
1285.281	-545.27
1286.034	-815.6
1286.788	806.39
1287.541	443.9
1288.296	-831.99
1289.051	-363
1289.806	441.85
1290.562	605.69
1291.318	-766.45
1292.075	-508.41
1292.832	867.83
1293.59	857.59
1294.349	-670.2
1295.108	-629.24
1295.867	1048.05
1296.627	585.21
1297.387	-770.55
1298.148	-479.74
1298.91	388.6
1299.672	50.69
1300.434	-602.61
1301.197	-690.68
1301.961	1189.36
1302.725	304.64
1303.489	-498.17
1304.254	-498.17
1305.02	417.27
1305.786	691.7
1306.552	-909.81
1307.319	-821.75
1308.087	853.49
1308.855	867.83
1309.624	-571.9
1310.393	-477.69
1311.162	-127.49
1311.933	636.41
1312.703	-713.21
1313.474	-387.58
1314.246	263.68
1315.018	679.41
1315.791	-281.08
1316.564	-680.44
1317.338	747
1318.112	255.48
1318.887	-766.45
1319.662	-489.98
1320.438	435.71
1321.214	232.96
1321.991	-479.74
1322.769	-741.88
1323.546	474.62
1324.325	65.02
1325.104	-782.84
1325.883	-506.36
1326.663	-55.81
1327.444	515.58
1328.224	-561.66
1329.006	-483.83
1329.788	433.66
1330.571	261.63
1331.354	-342.52
1332.137	-688.63
1332.921	738.8
1333.706	32.26
1334.491	-352.76
1335.277	-504.31
1336.063	93.69
1336.849	278.01
1337.637	-645.62
1338.424	-528.89
1339.213	939.51
1340.001	851.44
1340.791	-651.77
1341.581	-348.67
1342.371	599.54
1343.162	349.69
1343.953	-647.67
1344.745	-479.74
1345.537	507.38
1346.33	708.09
1347.124	-608.76
1347.918	-291.32
1348.712	898.55
1349.507	482.81
1350.303	-664.05
1351.099	-475.64
1351.896	101.89
1352.693	-276.99
1353.49	-551.42
1354.289	-631.29
1355.087	591.35
1355.887	714.23
1356.686	-418.3
1357.487	-629.24
1358.288	116.22
1359.089	263.68
1359.891	-268.8
1360.693	-557.56
1361.496	-57.86
1362.3	278.01
1363.104	-657.91
1363.908	-643.57
1364.713	892.4
1365.519	953.84
1366.325	-657.91
1367.131	-791.03
1367.939	284.16
1368.746	826.87
1369.555	-1008.11
1370.363	-532.98
1371.173	876.02
1371.982	1267.18
1372.793	-727.54
1373.604	-887.28
1374.415	646.65
1375.227	884.21
1376.039	-668.15
1376.852	-659.96
1377.666	992.75
1378.48	482.81
1379.295	-788.98
1380.11	-807.41
1380.925	-64
1381.742	863.73
1382.558	-619
1383.376	-637.43
1384.193	392.7
1385.012	218.62
1385.831	-621.05
1386.65	-602.61
1387.47	167.42
1388.29	161.28
1389.111	-571.9
1389.933	-872.95
1390.755	775.67
1391.578	329.21
1392.401	-901.62
1393.225	-606.71
1394.049	871.92
1394.873	318.97
1395.699	-694.77
1396.525	-504.31
1397.351	663.03
1398.178	81.41
1399.005	-588.28
1399.833	-1057.26
1400.662	624.12
1401.491	916.98
1402.321	-543.22
1403.151	-612.85
1403.981	333.31
1404.813	542.2
1405.644	-418.3
1406.477	-762.36
1407.309	318.97
1408.143	1156.59
1408.977	-702.97
1409.811	-614.9
1410.646	921.07
1411.482	802.29
1412.318	-545.27
1413.155	-545.27
1413.992	714.23
1414.829	36.35
1415.668	-610.81
1416.506	-385.53
1417.346	779.76
1418.186	415.23
1419.026	-725.49
1419.867	-879.09
1420.709	691.7
1421.551	560.63
1422.393	-889.33
1423.236	-434.68
1424.08	386.55
1424.924	376.31
1425.769	-713.21
1426.614	-653.81
1427.46	572.92
1428.307	167.42
1429.154	-874.99
1430.001	-791.03
1430.849	392.7
1431.698	351.74
1432.547	-887.28
1433.397	-905.71
1434.247	634.36
1435.098	937.46
1435.949	-606.71
1436.801	-586.23
1437.653	46.59
1438.506	538.1
1439.36	-893.43
1440.214	-680.44
1441.069	556.54
1441.924	392.7
1442.78	-659.96
1443.636	-807.41
1444.493	259.58
1445.35	499.19
1446.208	-500.22
1447.067	-666.1
1447.926	450.04
1448.785	794.1
1449.645	-684.53
1450.506	-791.03
1451.367	466.42
1452.229	52.74
1453.091	-793.08
1453.954	-229.88
1454.818	241.15
1455.682	478.71
1456.546	-639.48
1457.412	-745.97
1458.277	761.33
1459.143	335.35
1460.01	-410.11
1460.878	-799.22
1461.745	310.78
1462.614	126.46
1463.483	-915.95
1464.352	-410.11
1465.223	826.87
1466.093	644.6
1466.964	-745.97
1467.836	-811.51
1468.709	765.43
1469.581	450.04
1470.455	-553.46
1471.329	-723.44
1472.203	105.98
1473.079	134.65
1473.954	-240.12
1474.831	-713.21
1475.707	155.13
1476.585	167.42
1477.463	-692.73
1478.341	-651.77
1479.22	-33.28
1480.1	431.61
1480.98	-905.71
1481.861	-786.93
1482.742	468.47
1483.624	697.85
1484.506	-506.36
1485.389	-623.09
1486.273	239.1
1487.157	210.43
1488.041	-692.73
1488.926	-823.8
1489.812	501.24
1490.699	376.31
1491.585	-696.82
1492.473	-668.15
1493.361	-76.29
1494.249	271.87
1495.139	-459.26
1496.028	-578.04
1496.919	81.41
1497.809	599.54
1498.701	-709.11
1499.593	-539.13
1500.485	286.2
1501.378	753.14
1502.272	-356.86
1503.166	-666.1
1504.061	798.2
1504.956	531.96
1505.852	-612.85
1506.749	-844.28
1507.646	581.11
1508.543	458.23
1509.442	-784.88
1510.34	-102.91
1511.24	966.13
1512.14	380.41
1513.04	-655.86
1513.941	-811.51
1514.843	1254.89
1515.745	-25.09
1516.648	-680.44
1517.551	-858.61
1518.455	-238.08
1519.359	-33.28
1520.264	-795.12
1521.17	-803.32
1522.076	255.48
1522.983	609.78
1523.89	-827.89
1524.798	-360.95
1525.706	472.57
1526.615	1334.76
1527.525	-827.89
1528.435	-594.42
1529.346	548.34
1530.257	1.54
1531.169	-442.87
1532.081	-831.99
1532.994	1050.1
1533.908	314.88
1534.822	-784.88
1535.737	-623.09
1536.652	433.66
1537.568	402.94
1538.484	-655.86
1539.401	-963.06
1540.319	853.49
1541.237	-31.23
1542.156	-836.08
1543.075	-668.15
1543.995	1054.19
1544.916	1113.58
1545.837	-866.8
1546.758	-799.22
1547.68	671.22
1548.603	718.33
1549.527	-475.64
1550.451	-795.12
1551.375	554.49
1552.3	818.68
1553.226	-877.04
1554.152	-733.68
1555.079	810.48
1556.006	329.21
1556.934	-401.91
1557.863	-528.89
1558.792	873.97
1559.722	124.41
1560.652	-424.44
1561.583	-897.52
1562.514	44.54
1563.446	198.14
1564.379	-938.48
1565.312	-498.17
1566.246	771.57
1567.18	458.23
1568.115	-586.23
1569.051	-682.49
1569.987	810.48
1570.924	908.79
1571.861	-842.23
1572.799	-500.22
1573.737	658.93
1574.676	390.65
1575.616	-573.94
1576.556	-651.77
1577.497	28.16
1578.438	196.09
1579.38	-664.05
1580.323	-676.34
1581.266	540.15
1582.21	790
1583.154	-700.92
1584.099	-778.74
1585.044	433.66
1585.99	761.33
1586.937	-360.95
1587.884	-512.5
1588.832	400.89
1589.78	904.69
1590.729	-637.43
1591.679	-295.42
1592.629	445.95
1593.58	540.15
1594.531	-584.18
1595.483	-485.88
1596.435	204.28
1597.388	97.79
1598.342	-303.61
1599.296	-455.16
1600.251	544.25
1601.207	753.14
1602.163	-563.7
1603.119	-688.63
1604.077	790
1605.034	921.07
1605.993	-532.98
1606.952	5.63
1607.911	241.15
1608.872	386.55
1609.832	-684.53
1610.794	-852.47
1611.756	753.14
1612.718	476.66
1613.681	-229.88
1614.645	-588.28
1615.609	722.42
1616.574	239.1
1617.54	-164.35
1618.506	-535.03
1619.472	738.8
1620.44	660.98
1621.408	-129.53
1622.376	-571.9
1623.345	364.03
1624.315	728.56
1625.285	-518.65
1626.256	-434.68
1627.227	624.12
1628.199	-39.42
1629.172	-416.25
1630.145	-418.3
1631.119	552.44
1632.094	1125.87
1633.069	-559.61
1634.044	-346.62
1635.02	269.82
1635.997	724.47
1636.975	-545.27
1637.953	-799.22
1638.931	984.56
1639.911	120.32
1640.89	-721.4
1641.871	-612.85
1642.852	648.69
1643.833	534.01
1644.816	-768.5
1645.798	-825.84
1646.782	1097.2
1647.766	224.76
1648.75	-692.73
1649.736	-668.15
1650.721	75.26
1651.708	443.9
1652.695	-729.59
1653.682	-528.89
1654.671	550.39
1655.66	656.89
1656.649	-670.2
1657.639	-596.47
1658.63	-20.99
1659.621	187.9
1660.613	-825.84
1661.605	-827.89
1662.598	155.13
1663.592	50.69
1664.586	-983.54
1665.581	-741.88
1666.576	136.7
1667.572	323.07
1668.569	-678.39
1669.566	-721.4
1670.564	587.26
1671.563	738.8
1672.562	-670.2
1673.562	-254.46
1674.562	255.48
1675.563	540.15
1676.564	-385.53
1677.566	-578.04
1678.569	876.02
1679.572	-268.8
1680.576	-473.59
1681.581	-680.44
1682.586	189.95
1683.592	648.69
1684.598	-518.65
1685.605	-438.78
1686.613	687.61
1687.621	245.24
1688.63	-483.83
1689.639	-483.83
1690.649	286.2
1691.66	384.51
1692.671	-440.83
1693.683	-668.15
1694.696	130.56
1695.709	425.47
1696.722	-692.73
1697.737	-545.27
1698.752	79.36
1699.767	495.1
1700.783	-672.25
1701.8	-385.53
1702.818	343.55
1703.836	-16.9
1704.854	-827.89
1705.873	-612.85
1706.893	263.68
1707.914	458.23
1708.935	-594.42
1709.956	-627.19
1710.979	298.49
1712.002	357.88
1713.025	-680.44
1714.049	-537.08
1715.074	531.96
1716.099	609.78
1717.125	-717.3
1718.152	-727.54
1719.179	99.84
1720.207	695.8
1721.235	-98.81
1722.265	-242.17
1723.294	429.56
1724.325	239.1
1725.355	-459.26
1726.387	-504.31
1727.419	411.13
1728.452	613.88
1729.485	-442.87
1730.519	-709.11
1731.554	58.88
1732.589	413.18
1733.625	-788.98
1734.662	-623.09
1735.699	110.08
1736.736	755.19
1737.775	-690.68
1738.814	-705.01
1739.853	249.34
1740.894	310.78
1741.934	-500.22
1742.976	-770.55
1744.018	609.78
1745.061	392.7
1746.104	-727.54
1747.148	-702.97
1748.193	374.27
1749.238	419.32
1750.284	-582.14
1751.33	-764.4
1752.377	497.14
1753.425	1107.44
1754.473	-578.04
1755.522	-494.07
1756.572	814.58
1757.622	521.72
1758.673	-713.21
1759.724	-512.5
1760.776	785.91
1761.829	781.81
1762.882	-268.8
1763.936	-733.68
1764.991	89.6
1766.046	1072.62
1767.102	-508.41
1768.158	-819.7
1769.215	437.75
1770.273	470.52
1771.331	-537.08
1772.39	-717.3
1773.45	445.95
1774.51	509.43
1775.571	-823.8
1776.632	-176.64
1777.694	261.63
1778.757	577.02
1779.82	-489.98
1780.884	-541.18
1781.949	175.61
1783.014	503.29
1784.08	-897.52
1785.147	-692.73
1786.214	220.67
1787.282	226.81
1788.35	-406.01
1789.419	-401.91
1790.489	656.89
1791.559	413.18
1792.63	-680.44
1793.702	-266.75
1794.774	419.32
1795.847	589.3
1796.92	-320
1797.994	-500.22
1799.069	478.71
1800.144	1197.55
1801.22	-600.57
1802.297	-408.06
1803.374	34.3
1804.452	499.19
1805.531	-745.97
1806.61	-320
1807.69	544.25
1808.77	-61.95
1809.851	-459.26
1810.933	-811.51
1812.015	824.82
1813.098	124.41
1814.182	-604.66
1815.266	-492.02
1816.351	304.64
1817.437	466.42
1818.523	-500.22
1819.61	-537.08
1820.697	433.66
1821.785	1084.91
1822.874	-559.61
1823.963	-631.29
1825.053	310.78
1826.144	501.24
1827.235	-590.33
1828.327	-604.66
1829.42	359.93
1830.513	-57.86
1831.607	-731.64
1832.701	-659.96
1833.796	378.36
1834.892	687.61
1835.989	-866.8
1837.086	-815.6
1838.183	421.37
1839.282	331.26
1840.381	-668.15
1841.48	-662.01
1842.581	450.04
1843.682	896.5
1844.783	-205.31
1845.885	-385.53
1846.988	656.89
1848.092	466.42
1849.196	-500.22
1850.301	-414.2
1851.406	-0.51
1852.512	1019.38
1853.619	-573.94
1854.726	-684.53
1855.834	187.9
1856.943	761.33
1858.052	-662.01
1859.162	-545.27
1860.273	429.56
1861.384	777.72
1862.496	-588.28
1863.608	-639.48
1864.721	482.81
1865.835	157.18
1866.95	-619
1868.065	-688.63
1869.181	232.96
1870.297	720.37
1871.414	-262.65
1872.532	-856.56
1873.65	286.2
1874.769	204.28
1875.889	-641.53
1877.009	-227.84
1878.13	482.81
1879.252	804.34
1880.374	-451.07
1881.497	-623.09
1882.62	400.89
1883.745	263.68
1884.87	-840.18
1885.995	-823.8
1887.121	265.72
1888.248	46.59
1889.376	-829.94
1890.504	-678.39
1891.632	435.71
1892.762	206.33
1893.892	-713.21
1895.023	-477.69
1896.154	140.8
1897.286	376.31
1898.419	-770.55
1899.552	-508.41
1900.686	679.41
1901.821	499.19
1902.956	-631.29
1904.092	-514.55
1905.229	896.5
1906.366	613.88
1907.504	-682.49
1908.643	-741.88
1909.782	613.88
