Data from led2700K_USB4H112691__2__12-54-50-103.txt Node

Date: Tue Dec 17 12:54:50 CET 2024
User: Etudiants TP
Spectrometer: USB4H11269
Trigger mode: 4
Integration Time (sec): 1.000000E0
Scans to average: 1
Electric dark correction enabled: true
Nonlinearity correction enabled: false
Boxcar width: 0
XAxis mode: Wavelengths
Number of Pixels in Spectrum: 3648
>>>>>Begin Spectral Data<<<<<
286.377	-1626.43
286.631	-1626.43
286.884	-1626.43
287.138	-1702.2
287.391	-1665.34
287.644	-874.82
287.896	-651.6
288.149	781.98
288.401	382.63
288.653	-622.92
288.905	-444.75
289.157	943.77
289.409	345.77
289.661	-440.65
289.912	-710.99
290.163	460.45
290.414	831.13
290.665	-780.62
290.916	-604.49
291.166	620.19
291.417	1158.81
291.667	-661.84
291.917	-225.62
292.167	511.65
292.417	458.4
292.666	-831.82
292.916	-710.99
293.165	536.23
293.414	741.02
293.663	-987.46
293.912	-788.81
294.16	747.17
294.408	716.45
294.657	-698.7
294.905	-379.22
295.153	558.75
295.4	618.15
295.648	-868.68
295.895	-706.89
296.143	151.21
296.39	919.2
296.637	-618.83
296.884	-702.79
297.13	771.74
297.377	900.76
297.623	-534.86
297.869	-317.78
298.115	767.65
298.361	722.59
298.606	-768.33
298.852	-639.31
299.097	417.44
299.342	1009.31
299.587	-414.03
299.832	-633.16
300.077	784.03
300.322	624.29
300.566	-725.32
300.81	-424.27
301.054	550.56
301.298	831.13
301.542	-182.61
301.785	-383.31
302.029	1021.6
302.272	779.93
302.515	-797
302.758	-547.15
303.001	689.82
303.244	908.96
303.486	-596.3
303.729	-768.33
303.971	976.54
304.213	730.78
304.455	-915.78
304.696	-282.96
304.938	370.34
305.179	757.41
305.421	-399.7
305.662	-495.95
305.903	501.41
306.143	528.03
306.384	-477.52
306.625	-534.86
306.865	528.03
307.105	278.18
307.345	-440.65
307.585	-530.77
307.825	5.8
308.064	747.17
308.304	-684.36
308.543	-747.85
308.782	591.52
309.021	894.62
309.26	-409.94
309.499	-559.44
309.737	931.48
309.976	648.86
310.214	-842.06
310.452	-698.7
310.69	1101.47
310.928	263.85
311.165	-710.99
311.403	-676.17
311.64	800.41
311.878	642.72
312.115	-653.64
312.351	-498
312.588	396.96
312.825	902.81
313.061	-733.51
313.298	20.14
313.534	347.81
313.77	853.66
314.006	-620.88
314.241	-676.17
314.477	747.17
314.713	1336.98
314.948	-555.34
315.183	259.75
315.418	898.72
315.653	624.29
315.888	-725.32
316.122	-457.04
316.357	337.57
316.591	824.99
316.825	-555.34
317.059	-639.31
317.293	966.3
317.527	405.16
317.76	-653.64
317.994	-549.2
318.227	706.21
318.46	1257.11
318.693	-799.05
318.926	-506.19
319.159	173.74
319.391	458.4
319.624	-923.98
319.856	-495.95
320.088	788.13
320.321	607.91
320.552	-399.7
320.784	-637.26
321.016	853.66
321.247	42.67
321.479	-391.5
321.71	-401.74
321.941	-96.6
322.172	1132.19
322.403	-717.13
322.633	-442.7
322.864	741.02
323.094	345.77
323.325	-61.78
323.555	-600.4
323.785	218.79
324.014	253.61
324.244	-506.19
324.474	-411.98
324.703	949.92
324.933	863.9
325.162	-371.02
325.391	-848.2
325.62	1.71
325.848	872.09
326.077	-467.28
326.306	-362.83
326.534	802.46
326.762	956.06
326.99	-543.05
327.218	-280.91
327.446	888.48
327.674	155.3
327.901	-647.5
328.129	-674.12
328.356	851.61
328.583	235.18
328.81	-596.3
329.037	-399.7
329.264	480.93
329.491	855.71
329.717	-424.27
329.944	-641.36
330.17	446.12
330.396	280.23
330.622	-653.64
330.848	-358.74
331.074	550.56
331.299	1423
331.525	-565.58
331.75	-608.59
331.975	896.67
332.201	198.31
332.426	-889.16
332.65	-710.99
332.875	-92.5
333.1	464.55
333.324	-788.81
333.549	-735.56
333.773	325.29
333.997	560.8
334.221	-698.7
334.445	-598.35
334.668	530.08
334.892	1076.89
335.116	-379.22
335.339	-604.49
335.562	-14.68
335.785	448.16
336.008	-315.73
336.231	-661.84
336.454	-198.99
336.676	929.44
336.899	-522.57
337.121	-285.01
337.343	186.02
337.566	558.75
337.788	-547.15
338.009	-637.26
338.231	112.3
338.453	501.41
338.674	3325.56
338.896	-555.34
339.117	-72.02
339.338	931.48
339.559	-735.56
339.78	-561.48
340.001	104.11
340.222	884.38
340.442	-633.16
340.663	-319.82
340.883	781.98
341.103	452.26
341.323	-592.2
341.543	-418.13
341.763	763.55
341.983	308.9
342.202	-653.64
342.422	-719.18
342.641	1101.47
342.861	439.97
343.08	-299.34
343.299	-727.37
343.518	706.21
343.736	622.24
343.955	-624.97
344.174	-686.41
344.392	894.62
344.61	95.91
344.829	-725.32
345.047	-534.86
345.265	591.52
345.483	868
345.7	-672.08
345.918	-254.29
346.136	63.15
346.353	876.19
346.57	-741.71
346.788	-672.08
347.005	308.9
347.222	-14.68
347.438	-112.98
347.655	-684.36
347.872	222.89
348.088	1160.86
348.305	-457.04
348.521	-627.02
348.737	136.87
348.953	972.44
349.169	-147.8
349.385	-547.15
349.601	415.4
349.817	-153.94
350.032	-125.27
350.248	-256.34
350.463	1255.06
350.678	-205.14
350.893	-604.49
351.108	-710.99
351.323	214.7
351.538	870.05
351.753	-588.11
351.967	-612.68
352.182	792.22
352.396	321.19
352.61	-694.6
352.824	-616.78
353.038	622.24
353.252	935.58
353.466	-502.09
353.68	-627.02
353.894	360.1
354.107	34.47
354.32	-377.17
354.534	-659.79
354.747	640.67
354.96	-94.55
355.173	-485.71
355.386	-848.2
355.599	433.83
355.811	298.66
356.024	-715.08
356.236	-569.68
356.449	313
356.661	386.72
356.873	-799.05
357.085	-895.3
357.297	673.44
357.509	632.48
357.721	-653.64
357.933	-592.2
358.144	337.57
358.356	327.33
358.567	-346.45
358.778	-766.28
358.989	837.28
359.2	231.08
359.411	-543.05
359.622	-420.17
359.833	497.32
360.044	382.63
360.254	-555.34
360.465	-741.71
360.675	462.5
360.885	313
361.096	-725.32
361.306	-520.53
361.516	206.5
361.726	452.26
361.935	-825.67
362.145	-612.68
362.355	556.71
362.564	554.66
362.774	-868.68
362.983	-805.19
363.192	970.4
363.401	198.31
363.61	-676.17
363.819	-348.5
364.028	476.84
364.237	906.91
364.445	-616.78
364.654	-375.12
364.862	403.11
365.071	151.21
365.279	-416.08
365.487	-766.28
365.695	673.44
365.903	364.2
366.111	-684.36
366.319	-534.86
366.527	554.66
366.734	304.81
366.942	-411.98
367.149	-751.95
367.357	-612.68
367.564	1021.6
367.771	-534.86
367.978	-684.36
368.185	157.35
368.392	222.89
368.599	-309.58
368.806	-670.03
369.013	-94.55
369.219	493.22
369.426	-706.89
369.632	-203.09
369.838	1228.44
370.044	525.99
370.251	-606.54
370.457	-563.53
370.663	865.95
370.868	480.93
371.074	-571.72
371.28	-637.26
371.485	-155.99
371.691	626.34
371.896	-643.4
372.102	-710.99
372.307	1111.71
372.512	837.28
372.717	-651.6
372.922	-328.02
373.127	63.15
373.332	382.63
373.537	-586.06
373.741	-498
373.946	538.27
374.151	278.18
374.355	-813.38
374.559	-444.75
374.764	214.7
374.968	-350.54
375.172	-674.12
375.376	-276.82
375.58	542.37
375.784	52.91
375.987	-764.23
376.191	-592.2
376.395	206.5
376.598	206.5
376.802	-694.6
377.005	-299.34
377.208	231.08
377.412	69.29
377.615	-829.77
377.818	-612.68
378.021	265.89
378.224	-96.6
378.426	-604.49
378.629	-776.52
378.832	730.78
379.034	628.39
379.237	-862.54
379.439	-960.84
379.642	812.7
379.844	525.99
380.046	-915.78
380.248	-733.51
380.45	-151.89
380.652	-235.86
380.854	-543.05
381.056	-686.41
381.258	345.77
381.459	427.68
381.661	-821.58
381.862	-340.3
382.064	-57.68
382.265	151.21
382.467	-725.32
382.668	-454.99
382.869	698.02
383.07	337.57
383.271	-528.72
383.472	-661.84
383.673	669.34
383.874	407.2
384.074	-383.31
384.275	-874.82
384.476	534.18
384.676	1083.03
384.876	-758.09
385.077	-686.41
385.277	704.16
385.477	880.29
385.677	-825.67
385.878	-538.96
386.078	366.25
386.278	278.18
386.477	-217.43
386.677	-256.34
386.877	566.95
387.077	655.01
387.276	-379.22
387.476	-538.96
387.675	364.2
387.875	988.83
388.074	-743.75
388.273	-516.43
388.472	804.51
388.671	-143.7
388.87	-792.91
389.069	-215.38
389.268	-141.65
389.467	18.09
389.666	-840.01
389.865	-211.28
390.063	521.89
390.262	734.88
390.461	-649.55
390.659	-708.94
390.857	587.43
391.056	665.25
391.254	-702.79
391.452	-665.93
391.65	714.4
391.849	380.58
392.047	-434.51
392.245	-264.53
392.442	360.1
392.64	556.71
392.838	-409.94
393.036	-495.95
393.233	247.46
393.431	360.1
393.629	-897.35
393.826	-543.05
394.023	218.79
394.221	-170.32
394.418	-475.47
394.615	-260.43
394.812	-80.21
395.01	675.49
395.207	-555.34
395.404	-719.18
395.601	868
395.797	468.64
395.994	-825.67
396.191	-510.29
396.388	218.79
396.584	577.19
396.781	-323.92
396.977	-67.92
397.174	597.67
397.37	-31.06
397.567	-475.47
397.763	-627.02
397.959	298.66
398.155	282.28
398.352	-592.2
398.548	-223.57
398.744	509.6
398.94	353.96
399.136	-751.95
399.331	-278.87
399.527	452.26
399.723	460.45
399.919	-459.09
400.114	-561.48
400.31	233.13
400.505	509.6
400.701	-481.61
400.896	-481.61
401.092	124.58
401.287	347.81
401.482	-854.34
401.678	-452.94
401.873	521.89
402.068	579.23
402.263	-411.98
402.458	-516.43
402.653	67.24
402.848	546.47
403.043	-467.28
403.237	-659.79
403.432	124.58
403.627	-227.67
403.822	-821.58
404.016	-508.24
404.211	173.74
404.405	618.15
404.6	-242
404.794	-301.39
404.989	540.32
405.183	143.02
405.377	-379.22
405.571	-205.14
405.766	439.97
405.96	249.51
406.154	-528.72
406.348	-473.42
406.542	521.89
406.736	534.18
406.93	-768.33
407.124	-481.61
407.318	235.18
407.511	403.11
407.705	-391.5
407.899	-520.53
408.092	405.16
408.286	321.19
408.48	-788.81
408.673	-608.59
408.867	26.28
409.06	444.07
409.253	-432.46
409.447	-538.96
409.64	724.64
409.833	468.64
410.026	-481.61
410.22	-366.93
410.413	685.73
410.606	480.93
410.799	-733.51
410.992	-571.72
411.185	358.05
411.378	992.92
411.571	-489.81
411.764	-481.61
411.956	591.52
412.149	394.92
412.342	-377.17
412.534	-358.74
412.727	642.72
412.92	345.77
413.112	-481.61
413.305	-268.63
413.497	822.94
413.69	540.32
413.882	-477.52
414.075	-289.1
414.267	542.37
414.459	360.1
414.652	-596.3
414.844	-526.67
415.036	493.22
415.228	779.93
415.42	-203.09
415.612	-569.68
415.804	919.2
415.997	493.22
416.188	-268.63
416.38	-256.34
416.572	87.72
416.764	679.58
416.956	-477.52
417.148	-534.86
417.34	313
417.531	-115.03
417.723	-418.13
417.915	-383.31
418.107	145.06
418.298	456.36
418.49	-420.17
418.681	-233.81
418.873	855.71
419.064	439.97
419.256	-325.97
419.447	-541.01
419.639	603.81
419.83	845.47
420.021	-362.83
420.213	-510.29
420.404	394.92
420.595	476.84
420.786	-223.57
420.978	-268.63
421.169	736.93
421.36	313
421.551	-469.33
421.742	-448.85
421.933	906.91
422.124	702.11
422.315	-321.87
422.506	-354.64
422.697	681.63
422.888	296.61
423.079	-57.68
423.27	-377.17
423.461	358.05
423.652	317.09
423.842	-495.95
424.033	-325.97
424.224	657.06
424.415	1074.84
424.605	-256.34
424.796	-387.41
424.987	720.54
425.177	652.96
425.368	-645.45
425.558	-512.33
425.749	431.78
425.939	345.77
426.13	1.71
426.32	-223.57
426.511	378.53
426.701	192.17
426.892	-342.35
427.082	-407.89
427.272	292.52
427.463	507.55
427.653	-153.94
427.843	-84.31
428.034	1070.75
428.224	665.25
428.414	-508.24
428.604	-219.47
428.795	827.04
428.985	681.63
429.175	100.01
429.365	22.19
429.555	779.93
429.745	614.05
429.935	-211.28
430.126	26.28
430.316	997.02
430.506	1007.26
430.696	-47.44
430.886	79.53
431.076	814.75
431.266	517.79
431.456	247.46
431.645	-55.64
431.835	714.4
432.025	863.9
432.215	-151.89
432.405	222.89
432.595	865.95
432.785	827.04
432.975	-119.12
433.164	-211.28
433.354	523.94
433.544	949.92
433.734	-192.85
433.923	263.85
434.113	771.74
434.303	865.95
434.493	169.64
434.682	130.73
434.872	1103.51
435.062	583.33
435.251	235.18
435.441	124.58
435.631	1437.33
435.82	976.54
436.01	128.68
436.2	239.27
436.389	921.24
436.579	1599.12
436.768	583.33
436.958	609.95
437.147	1005.21
437.337	1357.46
437.527	476.84
437.716	216.74
437.906	1468.05
438.095	1132.19
438.285	386.72
438.474	571.04
438.664	1644.18
438.853	1480.34
439.043	640.67
439.232	325.29
439.422	1533.59
439.611	1592.98
439.8	517.79
439.99	882.33
440.179	1625.75
440.369	1896.08
440.558	511.65
440.748	691.87
440.937	1386.13
441.126	1279.64
441.316	1017.5
441.505	800.41
441.695	1844.88
441.884	2315.91
442.073	894.62
442.263	868
442.452	1713.81
442.642	1978
442.831	968.35
443.02	1304.21
443.21	2379.4
443.399	2834.05
443.588	1226.39
443.778	1328.79
443.967	2512.52
444.156	2229.9
444.346	1066.65
444.535	1062.55
444.725	2838.14
444.914	2221.7
445.103	1332.89
445.293	1500.82
445.482	2741.89
445.671	2360.97
445.861	1576.59
446.05	1754.77
446.239	2655.87
446.429	2188.94
446.618	1537.68
446.807	1955.47
446.997	2674.31
447.186	2832
447.376	1738.38
447.565	1937.04
447.754	3032.7
447.944	2981.5
448.133	1887.89
448.322	1631.89
448.512	2657.92
448.701	3264.12
448.891	1830.54
449.08	2115.21
449.269	2268.81
449.459	2477.7
449.648	1918.61
449.838	1969.8
450.027	2633.35
450.217	2446.98
450.406	1681.04
450.595	2035.34
450.785	2868.86
450.974	2918.01
451.164	1840.78
451.353	2023.05
451.543	2952.83
451.732	3176.06
451.922	1740.43
452.111	1834.64
452.301	2246.28
452.49	2205.32
452.68	1468.05
452.869	2174.6
453.059	2346.63
453.249	2891.39
453.438	1332.89
453.628	1691.28
453.817	2631.3
454.007	2610.82
454.197	1367.7
454.386	1603.22
454.576	2754.18
454.765	2619.01
454.955	1623.7
455.145	1406.61
455.334	2328.2
455.524	1846.93
455.714	1511.06
455.904	1187.48
456.093	2934.4
456.283	2311.82
456.473	1199.77
456.663	1201.82
456.852	2164.36
457.042	2152.07
457.232	1185.43
457.422	1818.25
457.612	2121.35
457.802	2268.81
457.991	720.54
458.181	999.07
458.371	2231.94
458.561	2168.46
458.751	1140.38
458.941	978.59
459.131	1762.96
459.321	1779.34
459.511	1089.18
459.701	1058.46
459.891	1926.8
460.081	1345.17
460.271	868
460.461	730.78
460.651	2451.08
460.841	2248.33
461.032	800.41
461.222	781.98
461.412	1568.4
461.602	2561.67
461.792	571.04
461.983	659.1
462.173	1744.53
462.363	2236.04
462.554	700.06
462.744	794.27
462.934	1797.78
463.125	1709.71
463.315	607.91
463.505	806.56
463.696	1844.88
463.886	1238.68
464.077	665.25
464.267	528.03
464.458	1914.51
464.648	1142.43
464.839	800.41
465.03	659.1
465.22	1160.86
465.411	1650.32
465.601	532.13
465.792	579.23
465.983	1379.99
466.174	1638.03
466.364	337.57
466.555	487.08
466.746	1668.75
466.937	1191.58
467.128	487.08
467.319	409.25
467.51	1658.51
467.701	2289.29
467.891	403.11
468.082	419.49
468.274	1402.52
468.465	896.67
468.656	583.33
468.847	175.78
469.038	1013.4
469.229	1062.55
469.42	528.03
469.612	321.19
469.803	1543.83
469.994	1300.12
470.185	515.75
470.377	108.2
470.568	1181.34
470.76	1306.26
470.951	284.33
471.142	564.9
471.334	1525.4
471.526	1365.65
471.717	521.89
471.909	140.97
472.1	1017.5
472.292	1191.58
472.484	95.91
472.675	233.13
472.867	1214.1
473.059	1517.2
473.251	294.57
473.443	79.53
473.635	1246.87
473.826	1377.94
474.018	65.19
474.21	341.67
474.402	1115.8
474.595	1568.4
474.787	120.49
474.979	321.19
475.171	865.95
475.363	640.67
475.555	-135.51
475.748	126.63
475.94	1320.6
476.132	925.34
476.325	-4.44
476.517	626.34
476.71	1846.93
476.902	865.95
477.095	36.52
477.287	411.3
477.48	1205.91
477.673	1093.27
477.865	106.15
478.058	26.28
478.251	1312.41
478.444	1474.2
478.636	224.94
478.829	100.01
479.022	1056.41
479.215	1132.19
479.408	276.13
479.601	528.03
479.794	738.98
479.988	878.24
480.181	255.65
480.374	145.06
480.567	1177.24
480.76	1599.12
480.954	214.7
481.147	-104.79
481.341	956.06
481.534	861.85
481.728	302.76
481.921	345.77
482.115	1320.6
482.308	1502.87
482.502	-0.34
482.696	204.46
482.89	1719.95
483.084	1234.58
483.277	192.17
483.471	280.23
483.665	1296.02
483.859	2252.42
484.053	-158.03
484.247	-49.49
484.442	1017.5
484.636	935.58
484.83	-0.34
485.024	206.5
485.219	968.35
485.413	689.82
485.608	54.95
485.802	370.34
485.997	1515.16
486.191	1035.93
486.386	108.2
486.58	183.98
486.775	1197.72
486.97	1339.03
487.165	110.25
487.36	177.83
487.555	1160.86
487.75	960.16
487.945	282.28
488.14	-88.4
488.335	839.33
488.53	847.52
488.725	-14.68
488.92	179.88
489.116	1451.67
489.311	1183.38
489.507	26.28
489.702	736.93
489.898	1582.74
490.093	853.66
490.289	532.13
490.485	206.5
490.68	665.25
490.876	1484.44
491.072	18.09
491.268	296.61
491.464	1386.13
491.66	1404.57
491.856	272.04
492.052	650.91
492.248	1474.2
492.445	1130.14
492.641	50.86
492.837	171.69
493.034	1439.38
493.23	1691.28
493.427	673.44
493.623	214.7
493.82	1214.1
494.017	1762.96
494.214	186.02
494.41	22.19
494.607	1355.41
494.804	812.7
495.001	323.24
495.198	382.63
495.395	1423
495.593	1296.02
495.79	173.74
495.987	50.86
496.184	603.81
496.382	1431.19
496.579	145.06
496.777	343.72
496.974	1861.26
497.172	1398.42
497.37	345.77
497.568	-39.25
497.766	2018.96
497.963	1197.72
498.161	226.98
498.359	403.11
498.558	1762.96
498.756	1568.4
498.954	239.27
499.152	636.58
499.351	1541.78
499.549	1232.54
499.747	284.33
499.946	394.92
500.145	1140.38
500.343	1263.26
500.542	263.85
500.741	349.86
500.94	1361.56
501.139	1683.09
501.338	337.57
501.537	593.57
501.736	1930.89
501.935	1447.57
502.134	190.12
502.334	341.67
502.533	1633.94
502.733	1482.39
502.932	439.97
503.132	358.05
503.331	1242.78
503.531	1607.31
503.731	437.92
503.931	325.29
504.131	1091.23
504.331	1633.94
504.531	423.59
504.731	388.77
504.931	1336.98
505.132	1312.41
505.332	427.68
505.532	399.01
505.733	1562.26
505.933	2018.96
506.134	480.93
506.335	265.89
506.536	1050.27
506.736	1783.44
506.937	456.36
507.138	165.54
507.34	2199.18
507.541	1400.47
507.742	669.34
507.943	272.04
508.145	1328.79
508.346	939.68
508.548	128.68
508.749	298.66
508.951	958.11
509.153	1226.39
509.354	446.12
509.556	374.44
509.758	1527.44
509.96	818.85
510.163	525.99
510.365	554.66
510.567	1214.1
510.769	1169.05
510.972	364.2
511.174	800.41
511.377	1005.21
511.58	2238.09
511.782	255.65
511.985	382.63
512.188	2043.53
512.391	1531.54
512.594	241.32
512.797	530.08
513.001	1609.36
513.204	1934.99
513.407	558.75
513.611	439.97
513.814	1492.63
514.018	1801.87
514.222	491.17
514.425	568.99
514.629	1582.74
514.833	1367.7
515.037	497.32
515.241	417.44
515.445	1169.05
515.65	1093.27
515.854	493.22
516.059	511.65
516.263	1605.27
516.468	1480.34
516.672	437.92
516.877	407.2
517.082	988.83
517.287	1443.48
517.492	722.59
517.697	394.92
517.902	1609.36
518.107	1181.34
518.313	601.76
518.518	421.54
518.724	1934.99
518.929	1293.97
519.135	640.67
519.341	183.98
519.547	1560.21
519.753	1590.93
519.959	370.34
520.165	513.7
520.371	1777.3
520.577	2086.54
520.784	249.51
520.99	747.17
521.197	1408.66
521.404	1425.04
521.61	200.36
521.817	235.18
522.024	1851.02
522.231	1279.64
522.438	44.71
522.645	898.72
522.853	1336.98
523.06	1681.04
523.268	405.16
523.475	464.55
523.683	1500.82
523.891	1611.41
524.098	214.7
524.306	538.27
524.514	1484.44
524.722	1300.12
524.931	550.56
525.139	468.64
525.347	935.58
525.556	1332.89
525.764	523.94
525.973	698.02
526.182	1486.48
526.391	1134.23
526.6	464.55
526.809	480.93
527.018	1349.27
527.227	1592.98
527.436	517.79
527.646	452.26
527.855	1560.21
528.065	1222.3
528.275	394.92
528.484	300.71
528.694	1697.42
528.904	1549.97
529.114	392.87
529.325	452.26
529.535	964.25
529.745	1484.44
529.956	362.15
530.166	423.59
530.377	1517.2
530.588	1900.17
530.799	560.8
531.01	429.73
531.221	1693.33
531.432	1801.87
531.643	593.57
531.855	892.57
532.066	1820.3
532.278	1406.61
532.489	564.9
532.701	370.34
532.913	1812.11
533.125	1576.59
533.337	300.71
533.549	386.72
533.762	1746.58
533.974	1033.88
534.186	218.79
534.399	538.27
534.612	1738.38
534.825	1504.92
535.037	599.71
535.25	685.73
535.464	1312.41
535.677	1836.69
535.89	427.68
536.104	528.03
536.317	1400.47
536.531	1451.67
536.744	790.17
536.958	525.99
537.172	1560.21
537.386	1304.21
537.6	444.07
537.815	501.41
538.029	1816.21
538.244	1840.78
538.458	300.71
538.673	519.84
538.888	1754.77
539.103	1963.66
539.318	714.4
539.533	403.11
539.748	1506.96
539.963	1167
540.179	233.13
540.394	239.27
540.61	822.94
540.826	1361.56
541.042	296.61
541.258	386.72
541.474	2033.29
541.69	1488.53
541.906	493.22
542.123	431.78
542.339	1529.49
542.556	1267.35
542.773	435.88
542.99	503.46
543.207	1423
543.424	1146.52
543.641	630.43
543.858	812.7
544.076	1195.67
544.293	1148.57
544.511	366.25
544.729	446.12
544.947	1308.31
545.165	1394.33
545.383	487.08
545.601	333.48
545.819	1506.96
546.038	1310.36
546.256	620.19
546.475	444.07
546.694	2322.06
546.913	1836.69
547.132	1126.04
547.351	534.18
547.57	1128.09
547.79	1080.99
548.009	448.16
548.229	476.84
548.449	1267.35
548.668	1771.15
548.888	673.44
549.109	616.1
549.329	1816.21
549.549	1717.9
549.77	566.95
549.99	804.51
550.211	1697.42
550.432	2008.72
550.653	333.48
550.874	626.34
551.095	2268.81
551.316	1347.22
551.538	390.82
551.759	657.06
551.981	1515.16
552.203	1781.39
552.424	452.26
552.646	841.37
552.869	1463.96
553.091	1478.29
553.313	698.02
553.536	685.73
553.758	1803.92
553.981	1459.86
554.204	298.66
554.427	714.4
554.65	1691.28
554.873	1048.22
555.097	353.96
555.32	509.6
555.544	1877.65
555.768	1742.48
555.992	560.8
556.216	517.79
556.44	1056.41
556.664	1803.92
556.888	992.92
557.113	370.34
557.337	2242.18
557.562	2010.76
557.787	480.93
558.012	741.02
558.237	1601.17
558.462	1369.75
558.688	812.7
558.913	632.48
559.139	1050.27
559.365	1728.14
559.591	476.84
559.817	550.56
560.043	1805.97
560.269	2051.72
560.496	908.96
560.722	640.67
560.949	2029.2
561.176	1050.27
561.403	595.62
561.63	861.85
561.857	1013.4
562.084	1246.87
562.312	485.03
562.539	700.06
562.767	1967.76
562.995	1353.37
563.223	652.96
563.451	755.36
563.679	1429.14
563.908	1490.58
564.136	628.39
564.365	1046.17
564.594	1001.12
564.823	2721.41
565.052	806.56
565.281	401.06
565.51	1660.56
565.74	1203.86
565.969	429.73
566.199	681.63
566.429	1621.65
566.659	1697.42
566.889	540.32
567.119	614.05
567.35	2008.72
567.58	2090.63
567.811	792.22
568.042	579.23
568.273	1361.56
568.504	1795.73
568.735	673.44
568.966	736.93
569.198	1607.31
569.43	1918.61
569.661	763.55
569.893	1056.41
570.125	2092.68
570.358	1885.84
570.59	722.59
570.822	599.71
571.055	1758.86
571.288	1791.63
571.521	528.03
571.754	603.81
571.987	2107.02
572.22	1525.4
572.454	812.7
572.687	704.16
572.921	1119.9
573.155	1455.76
573.389	1298.07
573.623	994.97
573.858	1410.71
574.092	1914.51
574.327	784.03
574.561	1095.32
574.796	1386.13
575.031	1900.17
575.266	648.86
575.502	736.93
575.737	1879.69
575.973	1713.81
576.209	802.46
576.445	753.31
576.681	1472.15
576.917	1635.99
577.153	591.52
577.39	706.21
577.626	1668.75
577.863	1586.83
578.1	489.12
578.337	1070.75
578.574	1545.88
578.812	2008.72
579.049	857.76
579.287	640.67
579.525	1818.25
579.763	1902.22
580.001	513.7
580.239	655.01
580.478	2156.17
580.716	1742.48
580.955	796.32
581.194	1015.45
581.433	2053.77
581.672	1676.95
581.911	747.17
582.151	552.61
582.39	1533.59
582.63	2164.36
582.87	677.54
583.11	593.57
583.35	1164.95
583.591	1472.15
583.831	951.96
584.072	1035.93
584.313	1834.64
584.554	1590.93
584.795	1009.31
585.036	929.44
585.277	2492.04
585.519	1949.32
585.761	513.7
586.003	568.99
586.245	1781.39
586.487	2328.2
586.729	1025.69
586.972	714.4
587.215	2631.3
587.457	1416.85
587.7	978.59
587.944	894.62
588.187	1656.47
588.43	1681.04
588.674	745.12
588.918	681.63
589.162	2123.4
589.406	1537.68
589.65	583.33
589.894	1490.58
590.139	1848.97
590.384	2113.16
590.629	644.77
590.874	870.05
591.119	1347.22
591.364	1836.69
591.61	698.02
591.855	538.27
592.101	2442.89
592.347	1975.95
592.593	812.7
592.84	1046.17
593.086	2438.79
593.333	1562.26
593.58	738.98
593.827	577.19
594.074	1820.3
594.321	1590.93
594.568	759.46
594.816	439.97
595.064	1754.77
595.312	1719.95
595.56	714.4
595.808	1087.13
596.057	2043.53
596.305	1603.22
596.554	358.05
596.803	929.44
597.052	1795.73
597.301	2221.7
597.551	485.03
597.8	1017.5
598.05	1943.18
598.3	1674.9
598.55	687.78
598.8	720.54
599.051	1334.93
599.301	1547.92
599.552	497.32
599.803	1119.9
600.054	1857.17
600.305	1779.34
600.556	954.01
600.808	939.68
601.06	1617.55
601.312	1980.04
601.564	829.09
601.816	528.03
602.068	2229.9
602.321	1961.61
602.574	839.33
602.827	562.85
603.08	1625.75
603.333	1871.5
603.587	673.44
603.84	951.96
604.094	1810.06
604.348	1488.53
604.602	634.53
604.856	724.64
605.111	1978
605.365	1789.58
605.62	747.17
605.875	548.51
606.13	1736.34
606.386	1635.99
606.641	679.58
606.897	444.07
607.153	1578.64
607.409	2045.58
607.665	476.84
607.921	378.53
608.178	1306.26
608.435	1836.69
608.692	568.99
608.949	775.84
609.206	1963.66
609.463	1795.73
609.721	677.54
609.979	884.38
610.237	1705.62
610.495	2033.29
610.753	847.52
611.012	874.14
611.27	1973.9
611.529	1748.62
611.788	843.42
612.047	509.6
612.307	1183.38
612.566	1828.49
612.826	452.26
613.086	693.92
613.346	1171.1
613.606	1769.1
613.867	607.91
614.127	806.56
614.388	1150.62
614.649	1812.11
614.91	523.94
615.172	870.05
615.433	1302.17
615.695	1431.19
615.957	730.78
616.219	634.53
616.481	1957.52
616.743	1511.06
617.006	267.94
617.269	571.04
617.532	1762.96
617.795	1711.76
618.058	532.13
618.322	788.13
618.586	1623.7
618.849	1281.69
619.114	784.03
619.378	417.44
619.642	1656.47
619.907	1799.82
620.172	472.74
620.437	632.48
620.702	1828.49
620.967	1330.84
621.233	591.52
621.499	603.81
621.765	1357.46
622.031	1611.41
622.297	485.03
622.564	497.32
622.83	1500.82
623.097	2090.63
623.364	577.19
623.631	915.1
623.899	1699.47
624.166	1685.14
624.434	444.07
624.702	329.38
624.97	1943.18
625.239	1257.11
625.507	493.22
625.776	609.95
626.045	1181.34
626.314	1476.24
626.584	509.6
626.853	470.69
627.123	1412.76
627.393	886.43
627.663	444.07
627.933	493.22
628.204	1676.95
628.474	1728.14
628.745	353.96
629.016	544.42
629.287	1437.33
629.559	1244.82
629.83	284.33
630.102	464.55
630.374	1123.99
630.646	1980.04
630.919	464.55
631.191	669.34
631.464	1318.55
631.737	1013.4
632.01	300.71
632.284	505.51
632.557	1887.89
632.831	1623.7
633.105	288.42
633.379	403.11
633.654	980.64
633.928	1394.33
634.203	530.08
634.478	249.51
634.753	1445.52
635.028	1484.44
635.304	665.25
635.58	450.21
635.856	1390.23
636.132	1306.26
636.408	216.74
636.685	358.05
636.961	1248.92
637.238	1285.78
637.515	429.73
637.793	472.74
638.07	1525.4
638.348	1109.66
638.626	495.27
638.904	550.56
639.182	702.11
639.461	814.75
639.74	396.96
640.019	587.43
640.298	566.95
640.577	1306.26
640.857	229.03
641.136	405.16
641.416	1242.78
641.696	1705.62
641.977	499.36
642.257	513.7
642.538	1320.6
642.819	1820.3
643.1	243.37
643.382	42.67
643.663	1375.89
643.945	1349.27
644.227	427.68
644.509	173.74
644.792	1697.42
645.074	1388.18
645.357	216.74
645.64	26.28
645.923	1150.62
646.207	1232.54
646.49	239.27
646.774	169.64
647.058	1277.59
647.342	1470.1
647.627	57
647.911	50.86
648.196	1603.22
648.481	1533.59
648.767	171.69
649.052	292.52
649.338	865.95
649.624	904.86
649.91	44.71
650.196	59.05
650.483	1382.04
650.77	1599.12
651.057	513.7
651.344	388.77
651.631	1273.5
651.919	917.15
652.207	216.74
652.495	329.38
652.783	1248.92
653.071	1339.03
653.36	-55.64
653.649	220.84
653.938	997.02
654.227	1439.38
654.517	394.92
654.806	-14.68
655.096	736.93
655.387	1437.33
655.677	132.78
655.968	59.05
656.258	657.06
656.549	1476.24
656.841	288.42
657.132	200.36
657.424	900.76
657.716	1271.45
658.008	140.97
658.3	91.82
658.592	1185.43
658.885	1420.95
659.178	-10.58
659.471	-102.74
659.765	595.62
660.058	1128.09
660.352	9.9
660.646	161.45
660.94	1691.28
661.235	1136.28
661.53	566.95
661.824	-262.48
662.12	1099.42
662.415	507.55
662.711	1.71
663.006	239.27
663.302	775.84
663.599	480.93
663.895	-14.68
664.192	335.53
664.489	1431.19
664.786	1345.17
665.083	-121.17
665.381	16.04
665.678	857.76
665.976	1298.07
666.275	-287.06
666.573	120.49
666.872	708.26
667.171	1009.31
667.47	-174.42
667.769	-184.66
668.069	1271.45
668.368	1156.76
668.668	-282.96
668.969	-188.75
669.269	872.09
669.57	675.49
669.871	26.28
670.172	91.82
670.473	1271.45
670.775	1377.94
671.077	-166.23
671.379	1.71
671.681	1386.13
671.983	1029.79
672.286	-151.89
672.589	50.86
672.892	1031.83
673.196	1023.64
673.499	-135.51
673.803	5.8
674.107	1144.47
674.411	951.96
674.716	132.78
675.021	226.98
675.326	726.69
675.631	1205.91
675.936	-274.77
676.242	-55.64
676.548	607.91
676.854	1390.23
677.16	-315.73
677.467	-10.58
677.774	874.14
678.081	827.04
678.388	274.09
678.696	26.28
679.004	1240.73
679.312	1390.23
679.62	81.58
679.928	26.28
680.237	1138.33
680.546	392.87
680.855	61.1
681.164	-104.79
681.474	941.72
681.784	1017.5
682.094	-14.68
682.404	-274.77
682.715	1431.19
683.026	382.63
683.337	-227.67
683.648	124.58
683.959	1455.76
684.271	1099.42
684.583	-121.17
684.895	-227.67
685.208	947.87
685.52	1205.91
685.833	1.71
686.146	-84.31
686.46	1302.17
686.773	810.65
687.087	-33.11
687.401	-274.77
687.716	945.82
688.03	1128.09
688.345	-356.69
688.66	11.95
688.975	1070.75
689.291	1068.7
689.607	337.57
689.923	-145.75
690.239	863.9
690.555	1136.28
690.872	-184.66
691.189	-422.22
691.506	939.68
691.824	1197.72
692.142	-270.67
692.459	-125.27
692.778	648.86
693.096	1083.03
693.415	196.26
693.734	-55.64
694.053	855.71
694.372	345.77
694.692	-325.97
695.012	-59.73
695.332	622.24
695.652	884.38
695.973	-35.16
696.294	-231.76
696.615	642.72
696.936	1181.34
697.258	-454.99
697.579	-47.44
697.902	575.14
698.224	642.72
698.546	-192.85
698.869	-416.08
699.192	657.06
699.516	1101.47
699.839	-317.78
700.163	-37.2
700.487	513.7
700.811	1459.86
701.136	-440.65
701.461	-182.61
701.786	904.86
702.111	1410.71
702.436	-385.36
702.762	-16.73
703.088	1109.66
703.415	1502.87
703.741	-45.4
704.068	-252.24
704.395	667.3
704.722	1107.61
705.05	-325.97
705.377	-112.98
705.705	915.1
706.034	796.32
706.362	-432.46
706.691	-446.8
707.02	1173.14
707.349	997.02
707.679	-90.45
708.009	-227.67
708.339	898.72
708.669	741.02
709	-196.95
709.33	-346.45
709.661	845.47
709.993	683.68
710.324	-80.21
710.656	-207.19
710.988	874.14
711.321	1152.67
711.653	-416.08
711.986	-127.32
712.319	319.14
712.652	1046.17
712.986	40.62
713.32	-280.91
713.654	1183.38
713.988	1080.99
714.323	-223.57
714.658	-239.95
714.993	749.22
715.328	607.91
715.664	-26.96
716	104.11
716.336	1332.89
716.673	550.56
717.009	28.33
717.346	-121.17
717.683	1238.68
718.021	857.76
718.359	-254.29
718.697	-67.92
719.035	636.58
719.373	558.75
719.712	-22.87
720.051	-373.07
720.39	1144.47
720.73	792.22
721.07	-242
721.41	-151.89
721.75	1140.38
722.091	960.16
722.432	-215.38
722.773	73.39
723.114	794.27
723.456	784.03
723.798	-250.19
724.14	-76.12
724.482	534.18
724.825	935.58
725.168	183.98
725.511	-219.47
725.855	890.53
726.198	591.52
726.542	-262.48
726.887	190.12
727.231	1183.38
727.576	515.75
727.921	-82.26
728.266	-303.44
728.612	853.66
728.958	1132.19
729.304	-233.81
729.651	239.27
729.997	544.42
730.344	704.16
730.691	-231.76
731.039	26.28
731.387	800.41
731.735	552.61
732.083	-108.88
732.431	-51.54
732.78	673.44
733.129	-29.01
733.479	-260.43
733.828	22.19
734.178	648.86
734.528	288.42
734.879	-39.25
735.23	-325.97
735.581	835.23
735.932	824.99
736.283	-117.08
736.635	-319.82
736.987	1207.96
737.34	1060.51
737.692	-227.67
738.045	-227.67
738.398	888.48
738.752	1001.12
739.105	-344.4
739.459	218.79
739.814	1046.17
740.168	1083.03
740.523	-301.39
740.878	67.24
741.233	845.47
741.589	1083.03
741.945	-153.94
742.301	-76.12
742.657	1173.14
743.014	552.61
743.371	-274.77
743.728	378.53
744.086	743.07
744.444	763.55
744.802	-307.54
745.16	-332.11
745.519	921.24
745.878	560.8
746.237	-340.3
746.597	79.53
746.956	1203.86
747.316	657.06
747.677	-330.06
748.037	-80.21
748.398	646.82
748.759	917.15
749.121	59.05
749.482	5.8
749.844	358.05
750.207	337.57
750.569	-641.36
750.932	7.85
751.295	1443.48
751.659	876.19
752.022	-342.35
752.386	274.09
752.751	741.02
753.115	349.86
753.48	-217.43
753.845	-190.8
754.21	751.26
754.576	657.06
754.942	-452.94
755.308	44.71
755.675	601.76
756.041	1304.21
756.409	-444.75
756.776	-22.87
757.144	1347.22
757.511	1031.83
757.88	-344.4
758.248	-487.76
758.617	190.12
758.986	798.37
759.355	-94.55
759.725	-51.54
760.095	407.2
760.465	1210.01
760.836	-444.75
761.206	-215.38
761.577	1156.76
761.949	437.92
762.32	28.33
762.692	-381.26
763.065	620.19
763.437	450.21
763.81	-403.79
764.183	-78.16
764.556	1171.1
764.93	650.91
765.304	134.82
765.678	-82.26
766.053	870.05
766.428	798.37
766.803	-393.55
767.178	-280.91
767.554	186.02
767.93	480.93
768.306	-342.35
768.683	-291.15
769.06	939.68
769.437	648.86
769.814	-495.95
770.192	-371.02
770.57	528.03
770.948	1392.28
771.327	-145.75
771.706	-350.54
772.085	767.65
772.464	1154.71
772.844	-170.32
773.224	-457.04
773.605	216.74
773.985	536.23
774.366	-182.61
774.748	167.59
775.129	1058.46
775.511	757.41
775.893	-192.85
776.276	-92.5
776.658	1001.12
777.041	800.41
777.425	-534.86
777.808	-221.52
778.192	464.55
778.576	1058.46
778.961	-475.47
779.346	-239.95
779.731	915.1
780.116	151.21
780.502	-239.95
780.888	-225.62
781.274	542.37
781.661	347.81
782.048	-411.98
782.435	-452.94
782.823	534.18
783.21	745.12
783.598	-328.02
783.987	-223.57
784.376	1066.65
784.765	470.69
785.154	-285.01
785.544	-360.78
785.933	798.37
786.324	468.64
786.714	-110.93
787.105	-526.67
787.496	704.16
787.888	491.17
788.279	-471.37
788.671	-342.35
789.064	575.14
789.456	757.41
789.849	-538.96
790.242	-446.8
790.636	349.86
791.03	765.6
791.424	-440.65
791.818	1228.44
792.213	904.86
792.608	607.91
793.004	-26.96
793.399	-643.4
793.795	583.33
794.192	495.27
794.588	-368.98
794.985	-624.97
795.382	698.02
795.78	423.59
796.178	-233.81
796.576	-260.43
796.974	1205.91
797.373	550.56
797.772	-325.97
798.172	-407.89
798.571	657.06
798.971	904.86
799.372	-166.23
799.772	-321.87
800.173	951.96
800.574	644.77
800.976	-309.58
801.378	-602.44
801.78	321.19
802.182	52.91
802.585	-244.05
802.988	-454.99
803.392	435.88
803.795	149.16
804.199	-516.43
804.604	-325.97
805.008	702.11
805.413	992.92
805.819	-323.92
806.224	-545.1
806.63	581.28
807.036	691.87
807.443	-391.5
807.85	-246.1
808.257	636.58
808.664	575.14
809.072	-18.77
809.48	-231.76
809.889	870.05
810.297	753.31
810.706	61.1
811.116	-354.64
811.526	435.88
811.936	425.64
812.346	-442.7
812.757	-510.29
813.167	601.76
813.579	337.57
813.99	-215.38
814.402	-498
814.814	1132.19
815.227	405.16
815.64	-661.84
816.053	-477.52
816.467	898.72
816.88	566.95
817.294	-190.8
817.709	-231.76
818.124	329.38
818.539	1042.07
818.954	-170.32
819.37	-194.9
819.786	186.02
820.202	722.59
820.619	-766.28
821.036	-454.99
821.453	933.53
821.871	511.65
822.289	-596.3
822.707	-545.1
823.126	609.95
823.545	265.89
823.964	-459.09
824.384	-473.42
824.804	276.13
825.224	624.29
825.645	-141.65
826.065	-559.44
826.487	851.61
826.908	964.25
827.33	-317.78
827.752	-18.77
828.175	599.71
828.598	837.28
829.021	-37.2
829.444	284.33
829.868	659.1
830.292	347.81
830.717	-575.82
831.142	-473.42
831.567	263.85
831.992	485.03
832.418	48.81
832.844	-518.48
833.27	495.27
833.697	489.12
834.124	-698.7
834.552	-710.99
834.979	1003.16
835.408	548.51
835.836	-563.53
836.265	-397.65
836.694	290.47
837.123	702.11
837.553	-633.16
837.983	-647.5
838.413	820.89
838.844	693.92
839.275	-588.11
839.706	-155.99
840.138	1076.89
840.57	345.77
841.003	-442.7
841.435	-248.15
841.868	386.72
842.302	468.64
842.735	-354.64
843.169	-604.49
843.604	585.38
844.039	571.04
844.474	-567.63
844.909	-463.18
845.345	665.25
845.781	671.39
846.217	-504.14
846.654	-653.64
847.091	755.36
847.528	294.57
847.966	-586.06
848.404	-381.26
848.842	1107.61
849.281	-145.75
849.72	-416.08
850.16	-536.91
850.599	362.15
851.039	175.78
851.48	-108.88
851.921	-407.89
852.362	507.55
852.803	945.82
853.245	-809.29
853.687	-446.8
854.129	741.02
854.572	235.18
855.015	-637.26
855.459	-641.36
855.903	118.44
856.347	710.3
856.791	-405.84
857.236	-502.09
857.681	1050.27
858.127	1279.64
858.572	-176.47
859.019	-577.87
859.465	837.28
859.912	497.32
860.359	-602.44
860.807	-579.92
861.255	243.37
861.703	784.03
862.151	-381.26
862.6	-2.39
863.05	626.34
863.499	321.19
863.949	-430.41
864.4	-645.45
864.85	968.35
865.301	747.17
865.752	-444.75
866.204	-506.19
866.656	243.37
867.109	943.77
867.561	-477.52
868.014	-291.15
868.468	716.45
868.921	820.89
869.376	-461.13
869.83	-530.77
870.285	542.37
870.74	251.56
871.195	-428.37
871.651	-397.65
872.107	960.16
872.564	353.96
873.021	-741.71
873.478	-762.19
873.936	806.56
874.394	603.81
874.852	-536.91
875.31	-313.68
875.769	476.84
876.229	1052.31
876.688	-319.82
877.148	-498
877.609	319.14
878.069	159.4
878.531	-203.09
878.992	-653.64
879.454	407.2
879.916	462.5
880.378	-471.37
880.841	-530.77
881.304	26.28
881.768	100.01
882.232	-641.36
882.696	-340.3
883.161	147.11
883.626	448.16
884.091	-416.08
884.557	-551.24
885.023	9.9
885.489	648.86
885.956	-809.29
886.423	-555.34
886.89	-47.44
887.358	581.28
887.826	-555.34
888.295	-465.23
888.763	143.02
889.233	1052.31
889.702	-504.14
890.172	-612.68
890.642	267.94
891.113	208.55
891.584	-180.56
892.055	-444.75
892.527	779.93
892.999	857.76
893.472	-553.29
893.944	-371.02
894.417	487.08
894.891	126.63
895.365	-377.17
895.839	-387.41
896.314	544.42
896.789	-323.92
897.264	-526.67
897.74	-678.22
898.216	796.32
898.692	581.28
899.169	-581.96
899.646	-629.07
900.123	435.88
900.601	976.54
901.079	-663.88
901.558	-502.09
902.037	814.75
902.516	454.31
902.996	-786.76
903.476	-659.79
903.956	364.2
904.437	638.62
904.918	-530.77
905.399	-690.51
905.881	550.56
906.363	593.57
906.846	-768.33
907.329	-489.81
907.812	-59.73
908.296	566.95
908.78	-698.7
909.264	-706.89
909.749	118.44
910.234	714.4
910.719	-643.4
911.205	-381.26
911.691	-59.73
912.178	536.23
912.665	-170.32
913.152	-553.29
913.64	245.41
914.128	562.85
914.616	-487.76
915.105	-520.53
915.594	460.45
916.084	972.44
916.574	-467.28
917.064	-719.18
917.555	-133.46
918.046	620.19
918.537	-117.08
919.029	-923.98
919.521	134.82
920.013	956.06
920.506	-426.32
920.999	-655.69
921.493	571.04
921.987	292.52
922.481	-315.73
922.976	-653.64
923.471	356.01
923.967	515.75
924.462	-487.76
924.959	-407.89
925.455	601.76
925.952	372.39
926.449	-698.7
926.947	-528.72
927.445	431.78
927.944	257.7
928.442	-872.78
928.942	-665.93
929.441	599.71
929.941	165.54
930.442	-612.68
930.942	-559.44
931.443	609.95
931.945	-57.68
932.447	-721.23
932.949	-610.64
933.451	272.04
933.954	208.55
934.458	-387.41
934.961	-672.08
935.465	116.39
935.97	48.81
936.475	-391.5
936.98	-674.12
937.486	-276.82
937.992	167.59
938.498	-528.72
939.005	-506.19
939.512	212.65
940.019	493.22
940.527	-518.48
941.035	-334.16
941.544	562.85
942.053	313
942.562	-256.34
943.072	-225.62
943.582	640.67
944.093	175.78
944.604	-690.51
945.115	-674.12
945.627	757.41
946.139	923.29
946.651	-588.11
947.164	-430.41
947.677	542.37
948.191	347.81
948.705	-694.6
949.219	-641.36
949.734	169.64
950.249	673.44
950.765	-577.87
951.281	-596.3
951.797	1447.57
952.314	665.25
952.831	-637.26
953.348	-817.48
953.866	642.72
954.384	302.76
954.903	-659.79
955.422	-731.47
955.941	374.44
956.461	351.91
956.981	-604.49
957.502	-438.61
958.023	597.67
958.544	480.93
959.066	-461.13
959.588	-749.9
960.11	50.86
960.633	798.37
961.156	-461.13
961.68	-596.3
962.204	751.26
962.729	83.63
963.253	-702.79
963.779	-2.39
964.304	525.99
964.83	847.52
965.357	-790.86
965.883	-512.33
966.411	306.85
966.938	640.67
967.466	-514.38
967.994	-854.34
968.523	157.35
969.052	831.13
969.582	-620.88
970.112	-667.98
970.642	44.71
971.173	730.78
971.704	-594.25
972.235	-391.5
972.767	591.52
973.3	319.14
973.832	-411.98
974.365	-821.58
974.899	378.53
975.433	550.56
975.967	-739.66
976.502	-307.54
977.037	374.44
977.572	788.13
978.108	-643.4
978.644	-891.21
979.181	1070.75
979.718	636.58
980.255	-985.41
980.793	-473.42
981.331	-162.13
981.87	667.3
982.409	-606.54
982.948	-391.5
983.488	267.94
984.028	839.33
984.569	-436.56
985.11	-620.88
985.651	732.83
986.193	530.08
986.735	-770.38
987.278	-710.99
987.821	-72.02
988.364	190.12
988.908	-461.13
989.452	-809.29
989.997	-358.74
990.542	478.88
991.088	-620.88
991.633	-276.82
992.18	200.36
992.726	-158.03
993.273	-514.38
993.821	-401.74
994.369	370.34
994.917	698.02
995.465	-776.52
996.014	-837.96
996.564	753.31
997.114	30.38
997.664	-338.26
998.215	-801.1
998.766	351.91
999.317	-76.12
999.869	-553.29
1000.421	-710.99
1000.974	591.52
1001.527	681.63
1002.081	-727.37
1002.635	-315.73
1003.189	403.11
1003.744	741.02
1004.299	-868.68
1004.854	-598.35
1005.41	863.9
1005.967	112.3
1006.523	-567.63
1007.081	-463.18
1007.638	487.08
1008.196	423.59
1008.755	-799.05
1009.313	-498
1009.873	628.39
1010.432	26.28
1010.992	-340.3
1011.553	-362.83
1012.114	419.49
1012.675	-47.44
1013.237	-317.78
1013.799	-366.93
1014.361	538.27
1014.924	-67.92
1015.487	-760.14
1016.051	-543.05
1016.615	759.46
1017.18	485.03
1017.745	-627.02
1018.31	-297.3
1018.876	908.96
1019.442	368.29
1020.009	-510.29
1020.576	-901.45
1021.143	372.39
1021.711	650.91
1022.28	-567.63
1022.848	-610.64
1023.417	747.17
1023.987	272.04
1024.557	-657.74
1025.127	-579.92
1025.698	-84.31
1026.269	126.63
1026.841	-817.48
1027.413	-430.41
1027.985	179.88
1028.558	415.4
1029.131	-676.17
1029.705	-512.33
1030.279	407.2
1030.854	321.19
1031.429	-784.71
1032.004	-264.53
1032.58	706.21
1033.156	91.82
1033.733	-698.7
1034.31	-694.6
1034.887	546.47
1035.465	691.87
1036.043	-1014.09
1036.622	-563.53
1037.201	282.28
1037.781	536.23
1038.361	-686.41
1038.941	-862.54
1039.522	513.7
1040.103	882.33
1040.685	-694.6
1041.267	-307.54
1041.85	1119.9
1042.433	534.18
1043.016	-694.6
1043.6	-590.16
1044.184	-258.39
1044.769	609.95
1045.354	-518.48
1045.939	-794.95
1046.525	353.96
1047.111	485.03
1047.698	-395.6
1048.285	-926.02
1048.873	534.18
1049.461	-178.51
1050.049	-639.31
1050.638	-596.3
1051.228	-18.77
1051.817	677.54
1052.407	-768.33
1052.998	-242
1053.589	534.18
1054.18	657.06
1054.772	-870.73
1055.365	-670.03
1055.957	411.3
1056.55	272.04
1057.144	-532.81
1057.738	-706.89
1058.333	153.26
1058.927	57
1059.523	-637.26
1060.118	-667.98
1060.715	130.73
1061.311	554.66
1061.908	-739.66
1062.506	-524.62
1063.103	661.15
1063.702	-10.58
1064.3	-969.03
1064.9	-792.91
1065.499	1009.31
1066.099	22.19
1066.7	-655.69
1067.301	-936.26
1067.902	718.5
1068.504	710.3
1069.106	-285.01
1069.709	-397.65
1070.312	779.93
1070.915	505.51
1071.519	-665.93
1072.123	-375.12
1072.728	587.43
1073.333	339.62
1073.939	-264.53
1074.545	-588.11
1075.152	534.18
1075.759	100.01
1076.366	-813.38
1076.974	-477.52
1077.582	399.01
1078.191	788.13
1078.8	-547.15
1079.41	-923.98
1080.02	280.23
1080.63	382.63
1081.241	-151.89
1081.852	-938.31
1082.464	427.68
1083.076	439.97
1083.689	-702.79
1084.302	-594.25
1084.915	732.83
1085.529	513.7
1086.144	-667.98
1086.759	-608.59
1087.374	124.58
1087.99	222.89
1088.606	-694.6
1089.222	-502.09
1089.839	532.13
1090.457	196.26
1091.075	-612.68
1091.693	-856.39
1092.312	616.1
1092.931	908.96
1093.551	-727.37
1094.171	-211.28
1094.792	439.97
1095.413	87.72
1096.034	-547.15
1096.656	-659.79
1097.278	609.95
1097.901	323.24
1098.524	-698.7
1099.148	-366.93
1099.772	921.24
1100.397	353.96
1101.022	-735.56
1101.647	-665.93
1102.273	485.03
1102.899	681.63
1103.526	-932.17
1104.153	-389.46
1104.781	577.19
1105.409	863.9
1106.038	-678.22
1106.667	-858.44
1107.296	222.89
1107.926	183.98
1108.556	-168.27
1109.187	-555.34
1109.818	454.31
1110.45	675.49
1111.082	-522.57
1111.715	-624.97
1112.348	374.44
1112.981	284.33
1113.615	-244.05
1114.25	-579.92
1114.885	192.17
1115.52	186.02
1116.156	-751.95
1116.792	-661.84
1117.428	476.84
1118.066	171.69
1118.703	-352.59
1119.341	-586.06
1119.98	665.25
1120.618	915.1
1121.258	-790.86
1121.898	-848.2
1122.538	399.01
1123.179	-84.31
1123.82	-547.15
1124.461	-428.37
1125.103	618.15
1125.746	120.49
1126.389	-426.32
1127.032	-846.15
1127.676	509.6
1128.32	845.47
1128.965	-426.32
1129.61	-448.85
1130.256	134.82
1130.902	671.39
1131.549	-659.79
1132.196	-680.27
1132.844	720.54
1133.491	665.25
1134.14	-618.83
1134.789	-670.03
1135.438	1058.46
1136.088	161.45
1136.738	-784.71
1137.389	-719.18
1138.04	591.52
1138.692	908.96
1139.344	-622.92
1139.996	-637.26
1140.649	542.37
1141.303	534.18
1141.957	-481.61
1142.611	-577.87
1143.266	399.01
1143.921	452.26
1144.577	-610.64
1145.233	-635.21
1145.89	132.78
1146.547	474.79
1147.205	-776.52
1147.863	-584.01
1148.521	427.68
1149.18	695.97
1149.84	-774.47
1150.5	-622.92
1151.16	276.13
1151.821	708.26
1152.482	-573.77
1153.144	-108.88
1153.806	394.92
1154.469	489.12
1155.132	-735.56
1155.796	-512.33
1156.46	552.61
1157.124	902.81
1157.789	-700.75
1158.455	-637.26
1159.121	329.38
1159.787	-22.87
1160.454	-579.92
1161.121	-538.96
1161.789	214.7
1162.457	566.95
1163.126	-448.85
1163.795	-465.23
1164.465	339.62
1165.135	190.12
1165.806	-553.29
1166.477	-457.04
1167.148	-375.12
1167.82	444.07
1168.493	-868.68
1169.166	-424.27
1169.839	13.99
1170.513	437.92
1171.187	-747.85
1171.862	-596.3
1172.537	366.25
1173.213	489.12
1173.889	-692.55
1174.566	-680.27
1175.243	751.26
1175.921	333.48
1176.599	-481.61
1177.278	-424.27
1177.957	95.91
1178.636	788.13
1179.316	-346.45
1179.997	-749.9
1180.678	657.06
1181.359	685.73
1182.041	-741.71
1182.723	-758.09
1183.406	751.26
1184.089	67.24
1184.773	-801.1
1185.457	-866.63
1186.142	241.32
1186.827	1345.17
1187.513	-768.33
1188.199	-268.63
1188.886	251.56
1189.573	341.67
1190.26	-563.53
1190.948	-586.06
1191.637	143.02
1192.326	249.51
1193.015	-768.33
1193.705	-909.64
1194.396	83.63
1195.087	298.66
1195.778	-475.47
1196.47	-749.9
1197.162	353.96
1197.855	476.84
1198.548	-694.6
1199.242	-989.51
1199.936	394.92
1200.631	636.58
1201.326	-872.78
1202.022	-731.47
1202.718	712.35
1203.415	415.4
1204.112	-905.54
1204.81	-563.53
1205.508	255.65
1206.206	1037.98
1206.905	-676.17
1207.605	-639.31
1208.305	257.7
1209.005	366.25
1209.706	-749.9
1210.408	-747.85
1211.11	288.42
1211.812	528.03
1212.515	-538.96
1213.218	-592.2
1213.922	384.68
1214.627	210.6
1215.331	-526.67
1216.037	-563.53
1216.743	83.63
1217.449	374.44
1218.156	-487.76
1218.863	-561.48
1219.571	304.81
1220.279	788.13
1220.988	-686.41
1221.697	-651.6
1222.406	568.99
1223.117	198.31
1223.827	-506.19
1224.538	-614.73
1225.25	325.29
1225.962	452.26
1226.675	-872.78
1227.388	-594.25
1228.101	263.85
1228.815	67.24
1229.53	-432.46
1230.245	-489.81
1230.961	456.36
1231.677	280.23
1232.393	-657.74
1233.11	-627.02
1233.828	1017.5
1234.546	509.6
1235.264	-596.3
1235.983	-346.45
1236.702	1074.84
1237.422	233.13
1238.143	-381.26
1238.864	-692.55
1239.585	732.83
1240.307	-233.81
1241.029	-852.3
1241.752	-293.2
1242.476	659.1
1243.2	759.46
1243.924	-534.86
1244.649	-579.92
1245.374	669.34
1246.1	870.05
1246.826	-919.88
1247.553	-565.58
1248.28	519.84
1249.008	525.99
1249.737	-694.6
1250.465	-428.37
1251.195	517.79
1251.925	835.23
1252.655	-702.79
1253.386	-379.22
1254.117	183.98
1254.849	255.65
1255.581	-690.51
1256.314	-498
1257.047	667.3
1257.781	517.79
1258.515	-674.12
1259.25	-129.36
1259.985	280.23
1260.721	356.01
1261.457	-448.85
1262.194	-907.59
1262.931	247.46
1263.669	720.54
1264.407	-422.22
1265.146	-842.06
1265.885	394.92
1266.625	233.13
1267.365	-528.72
1268.106	-649.55
1268.847	480.93
1269.589	181.93
1270.331	-350.54
1271.074	-518.48
1271.817	446.12
1272.561	394.92
1273.305	-307.54
1274.05	-411.98
1274.795	429.73
1275.541	464.55
1276.287	-807.24
1277.034	-784.71
1277.781	46.76
1278.529	587.43
1279.277	-829.77
1280.026	-813.38
1280.775	800.41
1281.525	-469.33
1282.275	-792.91
1283.026	-201.04
1283.777	394.92
1284.529	497.32
1285.281	-526.67
1286.034	-760.14
1286.788	761.5
1287.541	333.48
1288.296	-932.17
1289.051	-414.03
1289.806	476.84
1290.562	618.15
1291.318	-719.18
1292.075	-579.92
1292.832	771.74
1293.59	851.61
1294.349	-764.23
1295.108	-637.26
1295.867	956.06
1296.627	657.06
1297.387	-764.23
1298.148	-471.37
1298.91	321.19
1299.672	165.54
1300.434	-667.98
1301.197	-737.61
1301.961	1281.69
1302.725	304.81
1303.489	-461.13
1304.254	-510.29
1305.02	437.92
1305.786	673.44
1306.552	-856.39
1307.319	-942.41
1308.087	839.33
1308.855	802.46
1309.624	-629.07
1310.393	-588.11
1311.162	-131.41
1311.933	718.5
1312.703	-667.98
1313.474	-432.46
1314.246	288.42
1315.018	589.47
1315.791	-272.72
1316.564	-723.27
1317.338	652.96
1318.112	243.37
1318.887	-848.2
1319.662	-493.9
1320.438	407.2
1321.214	198.31
1321.991	-469.33
1322.769	-710.99
1323.546	503.46
1324.325	173.74
1325.104	-762.19
1325.883	-606.54
1326.663	-82.26
1327.444	470.69
1328.224	-567.63
1329.006	-518.48
1329.788	509.6
1330.571	296.61
1331.354	-297.3
1332.137	-766.28
1332.921	642.72
1333.706	-151.89
1334.491	-432.46
1335.277	-498
1336.063	124.58
1336.849	222.89
1337.637	-725.32
1338.424	-708.94
1339.213	937.63
1340.001	710.3
1340.791	-776.52
1341.581	-366.93
1342.371	530.08
1343.162	222.89
1343.953	-620.88
1344.745	-498
1345.537	472.74
1346.33	530.08
1347.124	-645.45
1347.918	-373.07
1348.712	929.44
1349.507	437.92
1350.303	-676.17
1351.099	-506.19
1351.896	77.48
1352.693	-192.85
1353.49	-592.2
1354.289	-563.53
1355.087	566.95
1355.887	755.36
1356.686	-461.13
1357.487	-645.45
1358.288	28.33
1359.089	274.09
1359.891	-160.08
1360.693	-590.16
1361.496	-76.12
1362.3	239.27
1363.104	-713.03
1363.908	-670.03
1364.713	786.08
1365.519	859.81
1366.325	-698.7
1367.131	-758.09
1367.939	345.77
1368.746	890.53
1369.555	-960.84
1370.363	-547.15
1371.173	808.61
1371.982	1187.48
1372.793	-710.99
1373.604	-864.58
1374.415	558.75
1375.227	730.78
1376.039	-729.42
1376.852	-735.56
1377.666	997.02
1378.48	390.82
1379.295	-741.71
1380.11	-768.33
1380.925	-0.34
1381.742	833.18
1382.558	-610.64
1383.376	-629.07
1384.193	464.55
1385.012	124.58
1385.831	-670.03
1386.65	-536.91
1387.47	167.59
1388.29	224.94
1389.111	-547.15
1389.933	-905.54
1390.755	587.43
1391.578	241.32
1392.401	-772.43
1393.225	-624.97
1394.049	861.85
1394.873	347.81
1395.699	-616.78
1396.525	-448.85
1397.351	628.39
1398.178	18.09
1399.005	-551.24
1399.833	-1106.24
1400.662	624.29
1401.491	951.96
1402.321	-637.26
1403.151	-616.78
1403.981	337.57
1404.813	575.14
1405.644	-473.42
1406.477	-731.47
1407.309	298.66
1408.143	1162.9
1408.977	-735.56
1409.811	-647.5
1410.646	1068.7
1411.482	820.89
1412.318	-522.57
1413.155	-596.3
1413.992	743.07
1414.829	30.38
1415.668	-663.88
1416.506	-383.31
1417.346	716.45
1418.186	347.81
1419.026	-692.55
1419.867	-938.31
1420.709	556.71
1421.551	554.66
1422.393	-940.36
1423.236	-348.5
1424.08	394.92
1424.924	419.49
1425.769	-739.66
1426.614	-674.12
1427.46	642.72
1428.307	181.93
1429.154	-880.97
1430.001	-862.54
1430.849	415.4
1431.698	294.57
1432.547	-817.48
1433.397	-932.17
1434.247	628.39
1435.098	1013.4
1435.949	-682.31
1436.801	-624.97
1437.653	95.91
1438.506	560.8
1439.36	-868.68
1440.214	-831.82
1441.069	550.56
1441.924	292.52
1442.78	-661.84
1443.636	-794.95
1444.493	370.34
1445.35	605.86
1446.208	-461.13
1447.067	-686.41
1447.926	507.55
1448.785	974.49
1449.645	-624.97
1450.506	-760.14
1451.367	384.68
1452.229	106.15
1453.091	-784.71
1453.954	-301.39
1454.818	204.46
1455.682	452.26
1456.546	-647.5
1457.412	-837.96
1458.277	743.07
1459.143	329.38
1460.01	-444.75
1460.878	-723.27
1461.745	331.43
1462.614	75.43
1463.483	-823.62
1464.352	-465.23
1465.223	786.08
1466.093	581.28
1466.964	-710.99
1467.836	-866.63
1468.709	757.41
1469.581	374.44
1470.455	-586.06
1471.329	-756.04
1472.203	-4.44
1473.079	181.93
1473.954	-297.3
1474.831	-760.14
1475.707	140.97
1476.585	231.08
1477.463	-743.75
1478.341	-610.64
1479.22	34.47
1480.1	468.64
1480.98	-846.15
1481.861	-868.68
1482.742	495.27
1483.624	714.4
1484.506	-465.23
1485.389	-579.92
1486.273	296.61
1487.157	169.64
1488.041	-784.71
1488.926	-797
1489.812	411.3
1490.699	382.63
1491.585	-698.7
1492.473	-641.36
1493.361	-252.24
1494.249	278.18
1495.139	-493.9
1496.028	-616.78
1496.919	40.62
1497.809	640.67
1498.701	-710.99
1499.593	-606.54
1500.485	167.59
1501.378	724.64
1502.272	-268.63
1503.166	-596.3
1504.061	741.02
1504.956	421.54
1505.852	-655.69
1506.749	-893.26
1507.646	495.27
1508.543	337.57
1509.442	-840.01
1510.34	-65.88
1511.24	1033.88
1512.14	372.39
1513.04	-760.14
1513.941	-903.5
1514.843	1216.15
1515.745	34.47
1516.648	-616.78
1517.551	-792.91
1518.455	-194.9
1519.359	-317.78
1520.264	-756.04
1521.17	-850.25
1522.076	216.74
1522.983	566.95
1523.89	-829.77
1524.798	-489.81
1525.706	276.13
1526.615	1353.37
1527.525	-880.97
1528.435	-629.07
1529.346	566.95
1530.257	69.29
1531.169	-493.9
1532.081	-753.99
1532.994	1062.55
1533.908	263.85
1534.822	-682.31
1535.737	-620.88
1536.652	460.45
1537.568	431.78
1538.484	-702.79
1539.401	-956.74
1540.319	874.14
1541.237	-39.25
1542.156	-768.33
1543.075	-665.93
1543.995	960.16
1544.916	1017.5
1545.837	-702.79
1546.758	-747.85
1547.68	663.2
1548.603	634.53
1549.527	-532.81
1550.451	-823.62
1551.375	485.03
1552.3	796.32
1553.226	-932.17
1554.152	-764.23
1555.079	784.03
1556.006	302.76
1556.934	-444.75
1557.863	-592.2
1558.792	968.35
1559.722	118.44
1560.652	-547.15
1561.583	-852.3
1562.514	5.8
1563.446	216.74
1564.379	-995.65
1565.312	-538.96
1566.246	759.46
1567.18	399.01
1568.115	-584.01
1569.051	-706.89
1569.987	841.37
1570.924	904.86
1571.861	-901.45
1572.799	-620.88
1573.737	730.78
1574.676	366.25
1575.616	-485.71
1576.556	-667.98
1577.497	34.47
1578.438	161.45
1579.38	-710.99
1580.323	-586.06
1581.266	431.78
1582.21	779.93
1583.154	-778.57
1584.099	-766.28
1585.044	538.27
1585.99	632.48
1586.937	-307.54
1587.884	-547.15
1588.832	239.27
1589.78	902.81
1590.729	-667.98
1591.679	-356.69
1592.629	435.88
1593.58	579.23
1594.531	-579.92
1595.483	-481.61
1596.435	212.65
1597.388	91.82
1598.342	-342.35
1599.296	-465.23
1600.251	534.18
1601.207	835.23
1602.163	-581.96
1603.119	-768.33
1604.077	747.17
1605.034	886.43
1605.993	-500.05
1606.952	-84.31
1607.911	249.51
1608.872	358.05
1609.832	-710.99
1610.794	-870.73
1611.756	597.67
1612.718	581.28
1613.681	-309.58
1614.645	-735.56
1615.609	796.32
1616.574	343.72
1617.54	-219.47
1618.506	-637.26
1619.472	718.5
1620.44	868
1621.408	-153.94
1622.376	-487.76
1623.345	437.92
1624.315	714.4
1625.285	-559.44
1626.256	-465.23
1627.227	593.57
1628.199	-41.3
1629.172	-522.57
1630.145	-452.94
1631.119	446.12
1632.094	997.02
1633.069	-610.64
1634.044	-385.36
1635.02	280.23
1635.997	667.3
1636.975	-592.2
1637.953	-815.43
1638.931	962.2
1639.911	61.1
1640.89	-751.95
1641.871	-502.09
1642.852	618.15
1643.833	466.6
1644.816	-715.08
1645.798	-862.54
1646.782	945.82
1647.766	181.93
1648.75	-743.75
1649.736	-606.54
1650.721	-26.96
1651.708	466.6
1652.695	-618.83
1653.682	-538.96
1654.671	454.31
1655.66	616.1
1656.649	-678.22
1657.639	-653.64
1658.63	-100.69
1659.621	183.98
1660.613	-932.17
1661.605	-842.06
1662.598	247.46
1663.592	243.37
1664.586	-923.98
1665.581	-835.91
1666.576	222.89
1667.572	466.6
1668.569	-702.79
1669.566	-731.47
1670.564	603.81
1671.563	761.5
1672.562	-710.99
1673.562	-364.88
1674.562	396.96
1675.563	525.99
1676.564	-457.04
1677.566	-665.93
1678.569	933.53
1679.572	-282.96
1680.576	-510.29
1681.581	-674.12
1682.586	175.78
1683.592	571.04
1684.598	-514.38
1685.605	-463.18
1686.613	689.82
1687.621	259.75
1688.63	-565.58
1689.639	-469.33
1690.649	284.33
1691.66	300.71
1692.671	-473.42
1693.683	-766.28
1694.696	81.58
1695.709	489.12
1696.722	-661.84
1697.737	-606.54
1698.752	241.32
1699.767	423.59
1700.783	-612.68
1701.8	-491.85
1702.818	462.5
1703.836	18.09
1704.854	-866.63
1705.873	-575.82
1706.893	235.18
1707.914	356.01
1708.935	-629.07
1709.956	-731.47
1710.979	241.32
1712.002	358.05
1713.025	-643.4
1714.049	-495.95
1715.074	550.56
1716.099	591.52
1717.125	-690.51
1718.152	-758.09
1719.179	124.58
1720.207	632.48
1721.235	-162.13
1722.265	-260.43
1723.294	233.13
1724.325	179.88
1725.355	-444.75
1726.387	-504.14
1727.419	364.2
1728.452	591.52
1729.485	-528.72
1730.519	-792.91
1731.554	1.71
1732.589	448.16
1733.625	-823.62
1734.662	-643.4
1735.699	36.52
1736.736	745.12
1737.775	-702.79
1738.814	-684.36
1739.853	151.21
1740.894	108.2
1741.934	-483.66
1742.976	-692.55
1744.018	571.04
1745.061	323.24
1746.104	-694.6
1747.148	-760.14
1748.193	292.52
1749.238	409.25
1750.284	-547.15
1751.33	-807.24
1752.377	536.23
1753.425	1117.85
1754.473	-645.45
1755.522	-561.48
1756.572	757.41
1757.622	609.95
1758.673	-815.43
1759.724	-522.57
1760.776	763.55
1761.829	751.26
1762.882	-323.92
1763.936	-743.75
1764.991	126.63
1766.046	994.97
1767.102	-489.81
1768.158	-837.96
1769.215	577.19
1770.273	612
1771.331	-502.09
1772.39	-706.89
1773.45	460.45
1774.51	509.6
1775.571	-837.96
1776.632	-170.32
1777.694	405.16
1778.757	521.89
1779.82	-444.75
1780.884	-452.94
1781.949	173.74
1783.014	433.83
1784.08	-864.58
1785.147	-670.03
1786.214	175.78
1787.282	93.87
1788.35	-440.65
1789.419	-420.17
1790.489	652.96
1791.559	388.77
1792.63	-731.47
1793.702	-414.03
1794.774	130.73
1795.847	575.14
1796.92	-420.17
1797.994	-571.72
1799.069	519.84
1800.144	1109.66
1801.22	-575.82
1802.297	-334.16
1803.374	-88.4
1804.452	536.23
1805.531	-784.71
1806.61	-373.07
1807.69	521.89
1808.77	-88.4
1809.851	-479.57
1810.933	-883.02
1812.015	616.1
1813.098	118.44
1814.182	-592.2
1815.266	-522.57
1816.351	370.34
1817.437	423.59
1818.523	-584.01
1819.61	-518.48
1820.697	392.87
1821.785	1138.33
1822.874	-479.57
1823.963	-555.34
1825.053	177.83
1826.144	452.26
1827.235	-620.88
1828.327	-637.26
1829.42	261.8
1830.513	-0.34
1831.607	-731.47
1832.701	-696.65
1833.796	337.57
1834.892	665.25
1835.989	-823.62
1837.086	-756.04
1838.183	444.07
1839.282	331.43
1840.381	-586.06
1841.48	-706.89
1842.581	501.41
1843.682	837.28
1844.783	-299.34
1845.885	-418.13
1846.988	698.02
1848.092	431.78
1849.196	-407.89
1850.301	-461.13
1851.406	18.09
1852.512	1001.12
1853.619	-567.63
1854.726	-739.66
1855.834	130.73
1856.943	640.67
1858.052	-737.61
1859.162	-622.92
1860.273	480.93
1861.384	755.36
1862.496	-538.96
1863.608	-678.22
1864.721	439.97
1865.835	169.64
1866.95	-729.42
1868.065	-661.84
1869.181	233.13
1870.297	726.69
1871.414	-334.16
1872.532	-878.92
1873.65	163.5
1874.769	206.5
1875.889	-702.79
1877.009	-215.38
1878.13	511.65
1879.252	855.71
1880.374	-561.48
1881.497	-690.51
1882.62	347.81
1883.745	315.05
1884.87	-854.34
1885.995	-901.45
1887.121	231.08
1888.248	32.43
1889.376	-844.1
1890.504	-735.56
1891.632	405.16
1892.762	124.58
1893.892	-717.13
1895.023	-416.08
1896.154	175.78
1897.286	263.85
1898.419	-710.99
1899.552	-676.17
1900.686	698.02
1901.821	476.84
1902.956	-612.68
1904.092	-536.91
1905.229	806.56
1906.366	609.95
1907.504	-674.12
1908.643	-684.36
1909.782	595.62
