Data from led2700K_USB4H112691__0__12-54-30-105.txt Node

Date: Tue Dec 17 12:54:30 CET 2024
User: Etudiants TP
Spectrometer: USB4H11269
Trigger mode: 4
Integration Time (sec): 1.000000E0
Scans to average: 1
Electric dark correction enabled: true
Nonlinearity correction enabled: false
Boxcar width: 0
XAxis mode: Wavelengths
Number of Pixels in Spectrum: 3648
>>>>>Begin Spectral Data<<<<<
286.377	-1668.92
286.631	-1668.92
286.884	-1668.92
287.138	-1666.88
287.391	-1701.69
287.644	-866.12
287.896	-675.66
288.149	815.26
288.401	469.16
288.653	-624.46
288.905	-542.54
289.157	995.48
289.409	280.74
289.661	-436.05
289.912	-800.59
290.163	538.79
290.414	845.98
290.665	-692.04
290.916	-642.89
291.166	583.84
291.417	1026.2
291.667	-700.23
291.917	-227.15
292.167	567.46
292.417	379.04
292.666	-808.78
292.916	-653.13
293.165	501.92
293.414	710.82
293.663	-886.6
293.912	-702.28
294.16	815.26
294.408	757.92
294.657	-780.11
294.905	-388.94
295.153	540.83
295.4	618.66
295.648	-833.35
295.895	-796.49
296.143	170.15
296.39	950.43
296.637	-667.47
296.884	-726.86
297.13	682.14
297.377	927.9
297.623	-581.45
297.869	-296.78
298.115	792.73
298.361	702.62
298.606	-673.61
298.852	-716.62
299.097	428.2
299.342	995.48
299.587	-382.8
299.832	-481.1
300.077	635.04
300.322	708.77
300.566	-741.19
300.81	-483.15
301.054	571.55
301.298	864.41
301.542	-161.62
301.785	-415.57
302.029	1034.39
302.272	782.49
302.515	-718.67
302.758	-538.45
303.001	727.2
303.244	827.55
303.486	-524.11
303.729	-874.31
303.971	1067.16
304.213	845.98
304.455	-888.65
304.696	-333.65
304.938	219.3
305.179	673.95
305.421	-530.25
305.662	-571.21
305.903	532.64
306.143	446.63
306.384	-431.95
306.625	-501.58
306.865	489.64
307.105	293.03
307.345	-522.06
307.585	-479.05
307.825	215.21
308.064	774.3
308.304	-606.03
308.543	-735.05
308.782	589.99
309.021	768.16
309.26	-304.98
309.499	-616.27
309.737	1011.87
309.976	661.66
310.214	-714.57
310.452	-612.17
310.69	1149.08
310.928	215.21
311.165	-689.99
311.403	-642.89
311.64	960.67
311.878	639.14
312.115	-636.75
312.351	-579.4
312.588	407.72
312.825	1007.77
313.061	-749.39
313.298	75.95
313.534	327.85
313.77	866.46
314.006	-673.61
314.241	-669.52
314.477	796.83
314.713	1241.24
314.948	-577.36
315.183	215.21
315.418	915.61
315.653	608.42
315.888	-755.53
316.122	-481.1
316.357	358.57
316.591	886.94
316.825	-571.21
317.059	-628.56
317.293	1083.55
317.527	411.81
317.76	-601.93
317.994	-489.29
318.227	766.11
318.46	1192.09
318.693	-692.04
318.926	-466.77
319.159	143.53
319.391	575.65
319.624	-874.31
319.856	-558.92
320.088	907.42
320.321	719.01
320.552	-341.84
320.784	-595.79
321.016	882.85
321.247	-46.93
321.479	-333.65
321.71	-382.8
321.941	4.27
322.172	1028.25
322.403	-651.08
322.633	-368.46
322.864	794.78
323.094	272.55
323.325	-3.93
323.555	-622.41
323.785	186.54
324.014	299.17
324.244	-429.9
324.474	-419.66
324.703	966.81
324.933	911.52
325.162	-450.38
325.391	-759.63
325.62	-30.55
325.848	893.09
326.077	-522.06
326.306	-444.24
326.534	723.1
326.762	919.71
326.99	-558.92
327.218	-276.31
327.446	829.6
327.674	116.9
327.901	-626.51
328.129	-685.9
328.356	823.45
328.583	192.68
328.81	-591.69
329.037	-374.61
329.264	469.16
329.491	899.23
329.717	-458.57
329.944	-653.13
330.17	413.86
330.396	172.2
330.622	-767.82
330.848	-354.13
331.074	514.21
331.299	1511.57
331.525	-683.85
331.75	-624.46
331.975	970.91
332.201	135.34
332.426	-898.89
332.65	-626.51
332.875	-135
333.1	540.83
333.324	-665.42
333.549	-683.85
333.773	360.61
333.997	626.85
334.221	-550.73
334.445	-669.52
334.668	602.27
334.892	1136.79
335.116	-339.79
335.339	-599.88
335.562	-71.51
335.785	420
336.008	-362.32
336.231	-628.56
336.454	-141.14
336.676	932
336.899	-495.44
337.121	-247.63
337.343	45.23
337.566	659.62
337.788	-595.79
338.009	-704.33
338.231	84.14
338.453	485.54
338.674	3303.54
338.896	-446.29
339.117	-3.93
339.338	1069.21
339.559	-724.81
339.78	-630.6
340.001	168.1
340.222	893.09
340.442	-571.21
340.663	-206.67
340.883	766.11
341.103	516.26
341.323	-620.36
341.543	-438.09
341.763	798.88
341.983	387.24
342.202	-751.43
342.422	-657.23
342.641	1136.79
342.861	448.68
343.08	-210.77
343.299	-681.8
343.518	606.37
343.736	637.09
343.955	-608.08
344.174	-706.38
344.392	774.3
344.61	133.29
344.829	-730.95
345.047	-558.92
345.265	596.13
345.483	1007.77
345.7	-653.13
345.918	-159.57
346.136	153.77
346.353	948.38
346.57	-735.05
346.788	-724.81
347.005	346.28
347.222	-5.97
347.438	-22.36
347.655	-567.12
347.872	297.13
348.088	1198.23
348.305	-325.46
348.521	-606.03
348.737	157.86
348.953	979.1
349.169	-132.95
349.385	-493.39
349.601	493.73
349.817	-57.17
350.032	-175.95
350.248	-309.07
350.463	1312.92
350.678	-292.69
350.893	-608.08
351.108	-665.42
351.323	272.55
351.538	755.87
351.753	-767.82
351.967	-679.75
352.182	825.5
352.396	303.27
352.61	-780.11
352.824	-632.65
353.038	641.18
353.252	764.06
353.466	-487.25
353.68	-616.27
353.894	497.83
354.107	223.4
354.32	-362.32
354.534	-616.27
354.747	678.05
354.96	-34.64
355.173	-302.93
355.386	-771.91
355.599	454.82
355.811	239.78
356.024	-716.62
356.236	-417.61
356.449	348.33
356.661	340.13
356.873	-788.3
357.085	-894.79
357.297	651.42
357.509	624.8
357.721	-659.28
357.933	-616.27
358.144	342.18
358.356	217.26
358.567	-337.74
358.778	-761.67
358.989	1005.72
359.2	200.87
359.411	-522.06
359.622	-483.15
359.833	565.41
360.044	338.09
360.254	-524.11
360.465	-675.66
360.675	551.07
360.885	372.9
361.096	-839.5
361.306	-526.16
361.516	366.76
361.726	559.27
361.935	-919.37
362.145	-595.79
362.355	575.65
362.564	520.35
362.774	-780.11
362.983	-835.4
363.192	948.38
363.401	233.64
363.61	-669.52
363.819	-313.17
364.028	422.05
364.237	929.95
364.445	-569.16
364.654	-374.61
364.862	493.73
365.071	231.59
365.279	-460.62
365.487	-685.9
365.695	620.71
365.903	434.34
366.111	-753.48
366.319	-515.92
366.527	559.27
366.734	303.27
366.942	-374.61
367.149	-677.71
367.357	-522.06
367.564	997.53
367.771	-452.43
367.978	-735.05
368.185	321.7
368.392	321.7
368.599	-378.7
368.806	-608.08
369.013	-30.55
369.219	528.55
369.426	-755.53
369.632	-276.31
369.838	1179.8
370.044	673.95
370.251	-612.17
370.457	-464.72
370.663	936.09
370.868	383.14
371.074	-567.12
371.28	-677.71
371.485	-91.99
371.691	733.34
371.896	-704.33
372.102	-730.95
372.307	1183.9
372.512	917.66
372.717	-657.23
372.922	-225.11
373.127	98.47
373.332	495.78
373.537	-497.49
373.741	-522.06
373.946	542.88
374.151	264.36
374.355	-737.1
374.559	-513.87
374.764	143.53
374.968	-337.74
375.172	-567.12
375.376	-235.35
375.58	405.67
375.784	59.56
375.987	-755.53
376.191	-620.36
376.395	215.21
376.598	237.74
376.802	-612.17
377.005	-235.35
377.208	290.98
377.412	131.24
377.615	-776.01
377.818	-640.84
378.021	243.88
378.224	-44.88
378.426	-620.36
378.629	-708.43
378.832	653.47
379.034	538.79
379.237	-929.61
379.439	-849.74
379.642	741.54
379.844	477.35
380.046	-894.79
380.248	-755.53
380.45	-145.24
380.652	-239.44
380.854	-544.59
381.056	-685.9
381.258	286.89
381.459	577.7
381.661	-720.71
381.862	-339.79
382.064	-14.17
382.265	223.4
382.467	-763.72
382.668	-552.78
382.869	673.95
383.07	379.04
383.271	-481.1
383.472	-722.76
383.673	739.49
383.874	391.33
384.074	-438.09
384.275	-743.24
384.476	643.23
384.676	1177.75
384.876	-804.68
385.077	-630.6
385.277	792.73
385.477	882.85
385.677	-669.52
385.878	-499.53
386.078	436.39
386.278	288.93
386.477	-259.92
386.677	-186.19
386.877	473.25
387.077	714.91
387.276	-390.99
387.476	-493.39
387.675	458.92
387.875	1028.25
388.074	-675.66
388.273	-587.6
388.472	845.98
388.671	-73.56
388.87	-675.66
389.069	-81.75
389.268	-169.81
389.467	118.95
389.666	-753.48
389.865	-216.91
390.063	512.16
390.262	743.58
390.461	-685.9
390.659	-618.32
390.857	733.34
391.056	628.9
391.254	-644.94
391.452	-503.63
391.65	868.51
391.849	501.92
392.047	-456.53
392.245	-317.26
392.442	325.8
392.64	506.02
392.838	-335.7
393.036	-411.47
393.233	389.28
393.431	299.17
393.629	-747.34
393.826	-440.14
394.023	219.3
394.221	-198.48
394.418	-479.05
394.615	-313.17
394.812	-30.55
395.01	692.38
395.207	-628.56
395.404	-696.14
395.601	1015.96
395.797	454.82
395.994	-743.24
396.191	-554.83
396.388	239.78
396.584	661.66
396.781	-268.11
396.977	-44.88
397.174	624.8
397.37	-30.55
397.567	-456.53
397.763	-653.13
397.959	499.88
398.155	463.01
398.352	-487.25
398.548	-182.1
398.744	542.88
398.94	346.28
399.136	-763.72
399.331	-282.45
399.527	411.81
399.723	481.44
399.919	-436.05
400.114	-487.25
400.31	288.93
400.505	542.88
400.701	-550.73
400.896	-509.77
401.092	155.82
401.287	336.04
401.482	-714.57
401.678	-337.74
401.873	624.8
402.068	751.78
402.263	-366.42
402.458	-479.05
402.653	141.48
402.848	546.98
403.043	-429.9
403.237	-685.9
403.432	155.82
403.627	-128.85
403.822	-747.34
404.016	-542.54
404.211	174.25
404.405	645.28
404.6	-325.46
404.794	-202.58
404.989	501.92
405.183	88.23
405.377	-378.7
405.571	-161.62
405.766	436.39
405.96	274.6
406.154	-563.02
406.348	-450.38
406.542	530.59
406.736	528.55
406.93	-667.47
407.124	-309.07
407.318	252.07
407.511	438.44
407.705	-440.14
407.899	-511.82
408.092	450.72
408.286	469.16
408.48	-665.42
408.673	-591.69
408.867	94.38
409.06	456.87
409.253	-321.36
409.447	-395.09
409.64	704.67
409.833	522.4
410.026	-300.88
410.22	-323.41
410.413	692.38
410.606	520.35
410.799	-677.71
410.992	-530.25
411.185	342.18
411.378	987.29
411.571	-466.77
411.764	-431.95
411.956	618.66
412.149	434.34
412.342	-243.54
412.534	-341.84
412.727	716.96
412.92	501.92
413.112	-419.66
413.305	-126.8
413.497	950.43
413.69	731.3
413.882	-300.88
414.075	-200.53
414.267	622.75
414.459	381.09
414.652	-581.45
414.844	-448.33
415.036	544.93
415.228	829.6
415.42	-108.37
415.612	-448.33
415.804	989.34
415.997	592.03
416.188	-87.89
416.38	-182.1
416.572	245.93
416.764	798.88
416.956	-456.53
417.148	-454.48
417.34	489.64
417.531	61.61
417.723	-399.18
417.915	-292.69
418.107	342.18
418.298	641.18
418.49	-282.45
418.681	-67.41
418.873	964.76
419.064	620.71
419.256	-204.63
419.447	-317.26
419.639	817.31
419.83	1056.92
420.021	-184.15
420.213	-366.42
420.404	606.37
420.595	665.76
420.786	-18.26
420.978	-38.74
421.169	911.52
421.36	657.57
421.551	-192.34
421.742	-374.61
421.933	1216.66
422.124	882.85
422.315	-143.19
422.506	-137.04
422.697	903.32
422.888	573.6
423.079	166.06
423.27	-137.04
423.461	608.42
423.652	579.75
423.842	-225.11
424.033	-46.93
424.224	1026.2
424.415	1366.17
424.605	110.76
424.796	-57.17
424.987	1112.22
425.177	895.13
425.368	-315.22
425.558	-120.66
425.749	835.74
425.939	739.49
426.13	487.59
426.32	356.52
426.511	657.57
426.701	755.87
426.892	194.73
427.082	96.43
427.272	794.78
427.463	1058.97
427.653	264.36
427.843	411.81
428.034	1583.25
428.224	1177.75
428.414	182.44
428.604	307.37
428.795	1202.33
428.985	1415.32
429.175	692.38
429.365	649.38
429.555	1329.3
429.745	1210.52
429.935	374.95
430.126	702.62
430.316	1607.83
430.506	1839.25
430.696	741.54
430.886	809.12
431.076	1712.27
431.266	1431.7
431.456	936.09
431.645	739.49
431.835	1532.05
432.025	1773.71
432.215	637.09
432.405	1069.21
432.595	1757.33
432.785	1673.36
432.975	952.48
433.164	745.63
433.354	1661.07
433.544	1927.31
433.734	979.1
433.923	1192.09
434.113	1941.65
434.303	1980.56
434.493	1476.76
434.682	1446.04
434.872	2384.01
435.062	1734.8
435.251	1468.56
435.441	1534.1
435.631	2709.63
435.82	2388.1
436.01	1380.5
436.2	1806.48
436.389	2320.52
436.579	3108.99
436.768	2076.81
436.958	2103.43
437.147	2701.44
437.337	3090.56
437.527	2222.22
437.716	2085
437.906	3453.05
438.095	2965.63
438.285	2396.29
438.474	2525.32
438.664	3688.56
438.853	3498.1
439.043	2738.3
439.232	2455.69
439.422	3612.79
439.611	3846.26
439.8	2680.96
439.99	3182.71
440.179	3967.09
440.369	4231.27
440.558	2967.68
440.748	3041.4
440.937	3979.37
441.126	3944.56
441.316	3729.52
441.505	3487.86
441.695	4636.77
441.884	5181.53
442.073	3780.72
442.263	3657.84
442.452	4759.65
442.642	4925.54
442.831	3932.27
443.02	4536.42
443.21	5781.59
443.399	6152.27
443.588	4550.76
443.778	4747.36
443.967	6174.8
444.156	5742.68
444.346	4638.82
444.535	4651.11
444.725	6525
444.914	5883.98
445.103	5052.51
445.293	5247.07
445.482	6783.04
445.671	6459.46
445.861	5730.39
446.05	5847.12
446.239	6752.32
446.429	6293.58
446.618	5636.18
446.807	6207.56
446.997	7413.82
447.186	7168.06
447.376	6336.59
447.565	6537.29
447.754	7497.78
447.944	7870.51
448.133	6512.71
448.322	6502.47
448.512	7465.02
448.701	7997.49
448.891	6623.3
449.08	6772.8
449.269	7065.66
449.459	7260.22
449.648	6664.26
449.838	6807.62
450.027	7188.54
450.217	7254.08
450.406	6629.45
450.595	6973.5
450.785	7749.68
450.974	7841.84
451.164	6826.05
451.353	6887.49
451.543	7688.25
451.732	7956.53
451.922	6418.5
452.111	6572.1
452.301	7055.42
452.49	6707.27
452.68	6115.41
452.869	6752.32
453.059	6983.74
453.249	7594.04
453.438	5720.15
453.628	6266.96
453.817	6826.05
454.007	6961.22
454.197	5496.92
454.386	5871.7
454.576	7069.76
454.765	7018.56
454.955	5677.14
455.145	5437.53
455.334	6150.22
455.524	5793.87
455.714	5593.17
455.904	5040.22
456.093	6518.86
456.283	6123.6
456.473	4831.33
456.663	4974.69
456.852	5691.48
457.042	6008.91
457.232	4808.8
457.422	5433.43
457.612	5720.15
457.802	5849.17
457.991	4171.88
458.181	4335.72
458.371	5615.7
458.561	5255.26
458.751	4288.62
458.941	4069.48
459.131	5042.27
459.321	5099.61
459.511	4395.11
459.701	4384.87
459.891	4888.67
460.081	4604
460.271	3942.51
460.461	3856.5
460.651	5539.93
460.841	5394.52
461.032	4046.96
461.222	3754.1
461.412	4540.52
461.602	5658.71
461.792	3641.46
461.983	3483.77
462.173	4855.9
462.363	5511.25
462.554	3786.86
462.744	3602.55
462.934	4989.02
463.125	4753.51
463.315	3586.16
463.505	3770.48
463.696	4591.72
463.886	4206.7
464.077	3424.37
464.267	3424.37
464.458	4941.92
464.648	4087.92
464.839	3682.42
465.03	3612.79
465.22	3948.65
465.411	4647.01
465.601	3219.58
465.792	3371.13
465.983	4261.99
466.174	4493.41
466.364	3149.95
466.555	3303.54
466.746	4552.81
466.937	3983.47
467.128	3217.53
467.319	3278.97
467.51	4644.96
467.701	5052.51
467.891	3283.06
468.082	3072.12
468.274	4122.73
468.465	3485.81
468.656	3098.75
468.847	2836.61
469.038	3549.3
469.229	3700.85
469.42	3164.28
469.612	2812.03
469.803	4169.84
469.994	4032.62
470.185	3170.43
470.377	2787.46
470.568	3895.41
470.76	4008.05
470.951	2918.53
471.142	2850.94
471.334	4081.77
471.526	3944.56
471.717	2926.72
471.909	2644.1
472.1	3717.23
472.292	3944.56
472.484	2635.91
472.675	2625.67
472.867	3731.57
473.059	4079.72
473.251	2775.17
473.443	2691.2
473.635	3647.6
473.826	3934.32
474.018	2590.85
474.21	2967.68
474.402	3623.03
474.595	4069.48
474.787	2711.68
474.979	2842.75
475.171	3324.02
475.363	3041.4
475.555	2416.77
475.748	2699.39
475.94	3809.39
476.132	3336.31
476.325	2578.56
476.517	3113.08
476.71	4493.41
476.902	3434.61
477.095	2644.1
477.287	3025.02
477.48	3967.09
477.673	3846.26
477.865	2871.42
478.058	2803.84
478.251	3952.75
478.444	4266.09
478.636	2861.18
478.829	2918.53
479.022	3893.36
479.215	4081.77
479.408	3131.51
479.601	3481.72
479.794	3510.39
479.988	3758.19
480.181	3141.75
480.374	3055.74
480.567	4059.24
480.76	4550.76
480.954	3139.71
481.147	2771.07
481.341	3905.65
481.534	3868.78
481.728	3104.89
481.921	3426.42
482.115	4356.2
482.308	4714.59
482.502	3215.48
482.696	3369.08
482.89	5087.33
483.084	4515.94
483.277	3590.26
483.471	3616.88
483.665	4714.59
483.859	5515.35
484.053	3281.02
484.247	3307.64
484.442	4606.05
484.636	4399.21
484.83	3590.26
485.024	3649.65
485.219	4526.18
485.413	4442.21
485.608	3598.45
485.802	4020.33
485.997	5283.93
486.191	4741.22
486.386	3905.65
486.58	4081.77
486.775	5165.15
486.97	5296.22
487.165	4044.91
487.36	4094.06
487.555	4995.17
487.75	4804.71
487.945	4442.21
488.14	4079.72
488.335	5064.8
488.53	5150.81
488.725	4343.91
488.92	4554.85
489.116	5845.07
489.311	5486.68
489.507	4300.91
489.702	5052.51
489.898	6070.35
490.093	5263.45
490.289	5183.58
490.485	4718.69
490.68	5212.25
490.876	6453.32
491.072	4796.51
491.268	5118.04
491.464	6262.86
491.66	6226
491.856	5099.61
492.052	5580.89
492.248	6461.51
492.445	6486.09
492.641	5369.94
492.837	5116
493.034	6875.2
493.23	6957.12
493.427	5861.46
493.623	5478.49
493.82	6703.17
494.017	7280.7
494.214	5834.83
494.41	5826.64
494.607	7141.44
494.804	6766.66
495.001	6408.26
495.198	6320.2
495.395	7407.67
495.593	7624.76
495.79	6144.08
495.987	6291.53
496.184	6983.74
496.382	7653.43
496.579	6420.55
496.777	6785.09
496.974	8339.5
497.172	8130.61
497.37	6948.93
497.568	6645.83
497.766	8689.7
497.963	7931.95
498.161	7071.81
498.359	7170.11
498.558	8839.2
498.756	8663.08
498.954	7178.3
499.152	7813.17
499.351	8714.28
499.549	8566.82
499.747	7538.74
499.946	7555.13
500.145	8636.45
500.343	8773.67
500.542	7831.6
500.741	7921.71
500.94	8992.8
501.139	9283.61
501.338	8220.72
501.537	8642.6
501.736	9863.19
501.935	9340.96
502.134	8245.29
502.334	8751.14
502.533	9803.8
502.733	9910.29
502.932	8751.14
503.132	8751.14
503.331	9721.88
503.531	10008.59
503.731	9025.57
503.931	9078.82
504.131	9787.41
504.331	10608.65
504.531	9285.66
504.731	9406.49
504.931	10465.29
505.132	10459.15
505.332	9404.44
505.532	9467.93
505.733	10676.23
505.933	11227.14
506.134	9754.65
506.335	9705.49
506.536	10676.23
506.736	11315.2
506.937	9883.67
507.138	9668.63
507.34	11882.49
507.541	11284.48
507.742	10668.04
507.943	10176.53
508.145	11294.72
508.346	10778.63
508.548	10291.21
508.749	10418.19
508.951	11155.46
509.153	11499.52
509.354	10674.18
509.556	10987.52
509.758	12152.82
509.96	11497.47
510.163	11005.95
510.365	10983.43
510.567	11532.28
510.769	11831.29
510.972	11118.59
511.174	11741.18
511.377	12136.43
511.58	13363.17
511.782	11331.58
511.985	11331.58
512.188	13133.79
512.391	12836.84
512.594	11552.76
512.797	12097.52
513.001	13109.22
513.204	13637.59
513.407	12060.66
513.611	12171.25
513.814	13318.11
514.018	13496.28
514.222	12349.42
514.425	12425.2
514.629	13336.54
514.833	13326.3
515.037	12568.55
515.241	12398.57
515.445	13228
515.65	13314.02
515.854	12728.3
516.059	12955.62
516.263	14077.91
516.468	13795.29
516.672	12867.56
516.877	13053.92
517.082	13793.24
517.287	14288.85
517.492	13301.73
517.697	13563.87
517.902	14030.8
518.107	13934.55
518.313	13320.16
518.518	13393.89
518.724	14907.34
518.929	14516.17
519.135	13692.89
519.341	13221.86
519.547	14686.15
519.753	15159.24
519.959	13739.99
520.165	13846.49
520.371	15044.55
520.577	15757.24
520.784	13621.21
520.99	14327.76
521.197	15200.19
521.404	15075.27
521.61	14104.53
521.817	14104.53
522.024	16007.09
522.231	15149
522.438	13844.44
522.645	14735.31
522.853	15443.9
523.06	15693.76
523.268	14731.21
523.475	14739.4
523.683	15794.11
523.891	15839.16
524.098	14438.35
524.306	15120.32
524.514	16107.44
524.722	15677.37
524.931	15036.36
525.139	15081.41
525.347	15456.19
525.556	16134.07
525.764	15394.75
525.973	15501.25
526.182	16584.62
526.391	16076.73
526.6	15368.13
526.809	15441.86
527.018	16324.53
527.227	16732.08
527.436	15448
527.646	15505.34
527.855	16635.82
528.065	16539.57
528.275	15867.83
528.484	16021.43
528.694	17016.74
528.904	16902.06
529.114	15904.7
529.325	16154.55
529.535	16691.12
529.745	17059.75
529.956	15998.9
530.166	15835.07
530.377	17254.31
530.588	17856.41
530.799	16869.29
531.01	16070.58
531.221	17502.11
531.432	17891.23
531.643	16537.52
531.855	16967.59
532.066	17928.09
532.278	17690.52
532.489	16746.41
532.701	16308.15
532.913	18173.85
533.125	17944.47
533.337	16584.62
533.549	16805.8
533.762	18102.17
533.974	17545.12
534.186	16480.18
534.399	17084.33
534.612	18642.83
534.825	18087.83
535.037	17588.13
535.25	17618.85
535.464	17993.62
535.677	18995.08
535.89	16963.5
536.104	17319.84
536.317	18223
536.531	18319.25
536.744	17715.1
536.958	17440.67
537.172	18638.73
537.386	18450.32
537.6	17745.82
537.815	17706.91
538.029	18950.03
538.244	19265.41
538.458	17620.89
538.673	17778.59
538.888	18950.03
539.103	19523.46
539.318	18198.42
539.533	18036.63
539.748	18972.55
539.963	18827.15
540.179	17964.95
540.394	17799.07
540.61	18556.82
540.826	18726.8
541.042	17897.37
541.258	18190.23
541.474	19957.63
541.69	19412.87
541.906	18347.92
542.123	18397.07
542.339	19566.46
542.556	19273.6
542.773	18509.71
542.99	18614.16
543.207	19521.41
543.424	19457.92
543.641	19040.14
543.858	19171.21
544.076	19668.86
544.293	19679.1
544.511	18972.55
544.729	18683.79
544.947	19806.08
545.165	19683.2
545.383	19040.14
545.601	19429.25
545.819	20291.45
546.038	19957.63
546.256	19400.58
546.475	19269.51
546.694	20838.25
546.913	20627.31
547.132	19771.26
547.351	19677.05
547.57	20240.25
547.79	20391.8
548.009	19787.64
548.229	19879.8
548.449	20662.13
548.668	21243.75
548.888	20109.18
549.109	20211.57
549.329	21378.92
549.549	21405.54
549.77	20203.38
549.99	20438.9
550.211	21389.16
550.432	22075.23
550.653	20248.44
550.874	20606.83
551.095	21946.2
551.316	21403.49
551.538	20617.07
551.759	20731.76
551.981	21669.73
552.203	21722.98
552.424	20909.93
552.646	21170.02
552.869	21878.62
553.091	22138.71
553.313	21311.33
553.536	21290.85
553.758	22789.97
553.981	22077.27
554.204	21129.06
554.427	21669.73
554.65	22574.93
554.873	22130.52
555.097	21151.59
555.32	21481.31
555.544	23156.55
555.768	22726.48
555.992	21489.51
556.216	21505.89
556.44	22327.13
556.664	23074.63
556.888	22220.63
557.113	21749.6
557.337	23576.39
557.562	23252.81
557.787	22067.03
558.012	21827.42
558.237	23142.22
558.462	23275.34
558.688	22718.29
558.913	22409.04
559.139	22867.79
559.365	23594.82
559.591	22501.2
559.817	22759.25
560.043	23840.57
560.269	24543.03
560.496	23109.45
560.722	22794.06
560.949	24368.95
561.176	23697.22
561.403	22845.26
561.63	23191.37
561.857	23691.07
562.084	23912.25
562.312	23258.95
562.539	22955.85
562.767	24979.25
562.995	24213.31
563.223	23742.27
563.451	23867.2
563.679	24295.22
563.908	24764.21
564.136	23811.9
564.365	24026.94
564.594	24035.13
564.823	25982.75
565.052	24141.63
565.281	23889.73
565.51	25081.64
565.74	24606.52
565.969	24104.76
566.199	24287.03
566.429	25106.22
566.659	25243.43
566.889	23787.33
567.119	24026.94
567.35	26027.81
567.58	26122.01
567.811	24571.7
568.042	24670
568.273	25403.18
568.504	26105.63
568.735	24940.33
568.966	24794.93
569.198	25708.32
569.43	26552.09
569.661	25343.78
569.893	25421.61
570.125	26750.74
570.358	26328.86
570.59	25126.7
570.822	24950.57
571.055	26631.96
571.288	26859.28
571.521	25571.11
571.754	25462.57
571.987	26750.74
572.22	26722.07
572.454	25866.02
572.687	25755.43
572.921	25968.41
573.155	26523.41
573.389	26302.23
573.623	26171.16
573.858	26791.7
574.092	27549.45
574.327	25947.93
574.561	26418.97
574.796	26834.71
575.031	26885.9
575.266	26445.59
575.502	26236.7
575.737	27354.89
575.973	27301.64
576.209	26511.13
576.445	26564.37
576.681	27062.03
576.917	27135.76
577.153	26148.64
577.39	26597.14
577.626	27350.79
577.863	27352.84
578.1	26304.28
578.337	26412.82
578.574	27383.56
578.812	28102.4
579.049	26859.28
579.287	26507.03
579.525	28141.31
579.763	27782.91
580.001	26324.76
580.239	27027.21
580.478	28559.09
580.716	27727.62
580.955	27027.21
581.194	27035.41
581.433	28116.73
581.672	27762.44
581.911	26971.92
582.151	27004.69
582.39	27823.87
582.63	28055.29
582.87	26797.84
583.11	27076.37
583.35	27244.3
583.591	27975.42
583.831	27299.59
584.072	27303.69
584.313	28253.95
584.554	28221.18
584.795	26953.49
585.036	27342.6
585.277	28933.87
585.519	28784.37
585.761	27047.69
586.003	27102.99
586.245	28229.37
586.487	28813.04
586.729	27371.27
586.972	27582.21
587.215	29318.89
587.457	27488.01
587.7	27666.18
587.944	27500.3
588.187	28018.43
588.43	28212.99
588.674	27094.8
588.918	27332.36
589.162	28456.7
589.406	27809.54
589.65	27021.07
589.894	27795.2
590.139	28638.97
590.384	28507.9
590.629	27123.47
590.874	27203.34
591.119	27782.91
591.364	28147.45
591.61	27021.07
591.855	26955.54
592.101	28751.6
592.347	28223.23
592.593	27102.99
592.84	27162.38
593.086	28880.63
593.333	27719.43
593.58	26672.92
593.827	27129.61
594.074	27858.69
594.321	27694.85
594.568	26767.12
594.816	26873.62
595.064	27862.79
595.312	27983.62
595.56	26906.38
595.808	27217.68
596.057	28194.56
596.305	27684.61
596.554	26646.29
596.803	27178.76
597.052	27875.07
597.301	28415.74
597.551	26543.89
597.8	27074.32
598.05	27752.2
598.3	27383.56
598.55	26677.01
598.8	26611.48
599.051	27197.2
599.301	27440.9
599.552	26451.74
599.803	26445.59
600.054	27490.06
600.305	27741.96
600.556	26746.64
600.808	26687.25
601.06	27037.45
601.312	27320.07
601.564	26830.61
601.816	26144.54
602.068	27686.66
602.321	27944.7
602.574	25999.13
602.827	25759.52
603.08	27213.58
603.333	27404.04
603.587	25866.02
603.84	25937.69
604.094	27737.86
604.348	26601.24
604.602	25726.75
604.856	26068.76
605.111	27162.38
605.365	27225.87
605.62	26062.62
605.875	25487.14
606.13	27180.81
606.386	26939.15
606.641	25554.72
606.897	25487.14
607.153	26521.37
607.409	27287.31
607.665	25530.15
607.921	25212.71
608.178	26253.08
608.435	26378.01
608.692	25284.39
608.949	25503.53
609.206	26816.27
609.463	26224.41
609.721	25542.44
609.979	25655.08
610.237	26416.92
610.495	26605.33
610.753	25411.37
611.012	25288.49
611.27	26769.17
611.529	26629.91
611.788	25323.3
612.047	25175.85
612.307	25380.65
612.566	26259.23
612.826	24661.81
613.086	25065.26
613.346	25646.88
613.606	25966.37
613.867	24659.76
614.127	24809.26
614.388	25276.2
614.649	25650.98
614.91	24391.48
615.172	24547.12
615.433	25014.06
615.695	25325.35
615.957	24649.52
616.219	24008.51
616.481	25745.19
616.743	24811.31
617.006	23801.66
617.269	24307.51
617.532	25100.08
617.795	25112.36
618.058	23586.63
618.322	23639.87
618.586	24844.08
618.849	24332.09
619.114	23650.11
619.378	23365.45
619.642	24450.87
619.907	24594.23
620.172	23398.21
620.437	23846.72
620.702	24293.18
620.967	24104.76
621.233	23146.31
621.499	22744.91
621.765	23811.9
622.031	24176.44
622.297	22685.52
622.564	22937.42
622.83	23414.6
623.097	24366.9
623.364	22959.95
623.631	22783.82
623.899	23492.42
624.166	23543.62
624.434	22441.81
624.702	21997.4
624.97	23500.61
625.239	22708.05
625.507	22054.75
625.776	21788.51
626.045	22796.11
626.314	23242.57
626.584	22038.36
626.853	21665.63
627.123	22294.36
627.393	21960.54
627.663	21481.31
627.933	21069.67
628.204	22742.86
628.474	22640.47
628.745	20987.75
629.016	21596
629.287	21940.06
629.559	21643.1
629.83	20858.73
630.102	20858.73
630.374	21270.37
630.646	22157.14
630.919	20725.61
631.191	20989.8
631.464	21170.02
631.737	20905.84
632.01	20459.38
632.284	19859.32
632.557	21444.45
632.831	21225.32
633.105	19775.36
633.379	19818.36
633.654	20522.87
633.928	20705.13
634.203	19351.43
634.478	19367.81
634.753	20754.29
635.028	20438.9
635.304	19572.61
635.58	19199.88
635.856	20070.26
636.132	19808.12
636.408	19040.14
636.685	19097.48
636.961	19861.37
637.238	19806.08
637.515	18904.97
637.793	18845.58
638.07	19976.06
638.348	19361.67
638.626	18939.79
638.904	18409.36
639.182	18823.05
639.461	18769.8
639.74	18538.38
640.019	18319.25
640.298	18053.02
640.577	18861.96
640.857	17864.6
641.136	18165.65
641.416	18427.79
641.696	19044.23
641.977	17508.26
642.257	17717.15
642.538	18337.68
642.819	18622.35
643.1	17319.84
643.382	16846.76
643.663	18208.66
643.945	18173.85
644.227	17221.54
644.509	16990.12
644.792	18632.59
645.074	17713.05
645.357	16408.5
645.64	16422.83
645.923	17647.52
646.207	17670.05
646.49	16179.12
646.774	16213.94
647.058	17149.86
647.342	17428.38
647.627	15796.15
647.911	15824.83
648.196	17373.09
648.481	17131.43
648.767	15835.07
649.052	16074.68
649.338	16119.73
649.624	16185.27
649.91	15122.37
650.196	15134.66
650.483	16687.02
650.77	16777.13
651.057	15243.2
651.344	15212.48
651.631	16236.47
651.919	15726.52
652.207	14835.66
652.495	14979.01
652.783	15935.42
653.071	15589.31
653.36	14381.01
653.649	14536.65
653.938	15585.21
654.227	15382.46
654.517	14491.6
654.806	14190.55
655.096	14856.14
655.387	15626.17
655.677	14309.33
655.968	13815.77
656.258	14706.63
656.549	14938.05
656.841	13901.78
657.132	13662.17
657.424	14319.57
657.716	14462.93
658.008	13334.5
658.3	13203.43
658.592	14454.73
658.885	14557.13
659.178	13223.9
659.471	12535.79
659.765	13397.98
660.058	13944.79
660.352	12597.23
660.646	12668.91
660.94	13977.56
661.235	13733.85
661.53	12808.17
661.824	12044.27
662.12	13430.75
662.415	12775.4
662.711	12087.28
663.006	12412.91
663.302	12873.7
663.599	12486.64
663.895	11814.9
664.192	12161.01
664.489	13240.29
664.786	13006.82
665.083	11450.36
665.381	11601.91
665.678	12574.7
665.976	12857.32
666.275	11036.67
666.573	11448.32
666.872	11667.45
667.171	12195.82
667.47	11161.6
667.769	10928.13
668.069	12376.05
668.368	12126.19
668.668	10512.39
668.969	10651.66
669.269	11495.42
669.57	11094.02
669.871	10498.06
670.172	10680.33
670.473	11708.41
670.775	11950.07
671.077	10291.21
671.379	10522.63
671.681	11706.36
671.983	11048.96
672.286	9994.26
672.589	10252.3
672.892	10958.85
673.196	10801.16
673.499	9670.68
673.803	9752.6
674.107	10842.12
674.411	10749.96
674.716	9873.43
675.021	9654.3
675.326	10303.5
675.631	10731.53
675.936	9078.82
676.242	9447.45
676.548	9865.24
676.854	10842.12
677.16	9007.14
677.467	9295.9
677.774	9906.2
678.081	9898
678.388	9232.41
678.696	9201.69
679.004	10266.64
679.312	10377.23
679.62	9027.62
679.928	8773.67
680.237	9807.89
680.546	9173.02
680.855	8652.84
681.164	8327.21
681.474	9637.91
681.784	9539.61
682.094	8251.44
682.404	8032.3
682.715	9494.55
683.026	8609.83
683.337	7737.4
683.648	8237.1
683.959	9357.34
684.271	9015.33
684.583	7747.64
684.895	7632.95
685.208	8919.07
685.52	8960.03
685.833	7731.25
686.146	7350.33
686.46	9005.09
686.773	8392.75
687.087	7661.62
687.401	7405.63
687.716	8548.39
688.03	8259.63
688.345	7014.46
688.66	7202.88
688.975	8235.05
689.291	8251.44
689.607	7524.41
689.923	7192.64
690.239	8054.83
690.555	8214.57
690.872	6701.12
691.189	6703.17
691.506	7827.51
691.824	8073.26
692.142	6424.65
692.459	6688.84
692.778	7628.85
693.096	7706.68
693.415	6989.89
693.734	6500.42
694.053	7149.63
694.372	6869.06
694.692	6178.89
695.012	6285.39
695.332	7008.32
695.652	7243.84
695.973	6254.67
696.294	6142.03
696.615	6918.21
696.936	7563.32
697.258	5544.02
697.579	5953.62
697.902	6486.09
698.224	6686.79
698.546	5847.12
698.869	5740.63
699.192	6408.26
699.516	7084.09
699.839	5652.56
700.163	5840.98
700.487	6385.74
700.811	7211.07
701.136	5197.92
701.461	5474.39
701.786	6662.21
702.111	6975.55
702.436	5171.29
702.762	5404.76
703.088	6592.58
703.415	6940.74
703.741	5277.79
704.068	5032.03
704.395	5838.93
704.722	6113.36
705.05	4995.17
705.377	5009.5
705.705	5906.51
706.034	5926.99
706.362	4718.69
706.691	4647.01
707.02	6119.5
707.349	6025.29
707.679	4888.67
708.009	4634.72
708.339	5636.18
708.669	5767.25
709	4626.53
709.33	4368.49
709.661	5777.49
709.993	5498.97
710.324	4620.39
710.656	4425.83
710.988	5539.93
711.321	5744.72
711.653	3971.18
711.986	4356.2
712.319	4907.1
712.652	5640.28
712.986	4305
713.32	4067.44
713.654	5527.64
713.988	5572.69
714.323	4089.96
714.658	4106.35
714.993	4995.17
715.328	4874.34
715.664	4202.6
716	4173.93
716.336	5402.71
716.673	4722.79
717.009	4044.91
717.346	4100.2
717.683	5343.32
718.021	4966.49
718.359	3467.38
718.697	3795.06
719.035	4724.83
719.373	4470.89
719.712	4057.2
720.051	3614.84
720.39	4968.54
720.73	4737.12
721.07	3534.96
721.41	3672.18
721.75	4855.9
722.091	4573.28
722.432	3477.62
722.773	3606.64
723.114	4368.49
723.456	4505.7
723.798	3307.64
724.14	3487.86
724.482	4132.97
724.825	4286.57
725.168	3434.61
725.511	3360.89
725.855	4345.96
726.198	4122.73
726.542	3092.6
726.887	3557.49
727.231	4628.58
727.576	3702.9
727.921	3238.01
728.266	2814.08
728.612	4012.14
728.958	4290.67
729.304	2820.22
729.651	3442.81
729.997	3842.16
730.344	3786.86
730.691	2844.8
731.039	3108.99
731.387	3897.46
731.735	3727.47
732.083	2918.53
732.431	2959.49
732.78	3561.59
733.129	3043.45
733.479	2582.66
733.828	2873.47
734.178	3481.72
734.528	3219.58
734.879	2805.89
735.23	2412.68
735.581	3741.81
735.932	3225.72
736.283	2662.53
736.635	2443.4
736.987	3962.99
737.34	3934.32
737.692	2502.79
738.045	2545.8
738.398	3577.97
738.752	3655.79
739.105	2222.22
739.459	2857.09
739.814	3690.61
740.168	3797.1
740.523	2320.52
740.878	2691.2
741.233	3369.08
741.589	3711.09
741.945	2502.79
742.301	2474.12
742.657	3752.05
743.014	3119.23
743.371	2234.5
743.728	2904.19
744.086	3135.61
744.444	3162.23
744.802	1896.59
745.16	2132.11
745.519	3266.68
745.878	2855.04
746.237	1902.73
746.597	2168.97
746.956	3311.74
747.316	3004.54
747.677	1904.78
748.037	2054.28
748.398	2783.36
748.759	3108.99
749.121	2185.35
749.482	2183.31
749.844	2623.62
750.207	2369.67
750.569	1509.52
750.932	2103.43
751.295	3520.63
751.659	2818.18
752.022	1716.37
752.386	2107.53
752.751	2740.35
753.115	2121.87
753.48	1593.49
753.845	1808.53
754.21	2652.29
754.576	2517.12
754.942	1484.95
755.308	1777.81
755.675	2347.14
756.041	2936.96
756.409	1329.3
756.776	1681.55
757.144	3235.96
757.511	2795.65
757.88	1552.53
758.248	1257.62
758.617	1878.16
758.986	2470.02
759.355	1800.34
759.725	1646.74
760.095	2025.61
760.465	2820.22
760.836	1394.84
761.206	1450.13
761.577	2707.59
761.949	2054.28
762.32	1507.48
762.692	1124.51
763.065	2101.39
763.437	1998.99
763.81	1161.37
764.183	1575.06
764.556	2746.5
764.93	2257.03
765.304	1599.63
765.678	1446.04
766.053	2037.9
766.428	2179.21
766.803	1046.68
767.178	1251.48
767.554	1636.5
767.93	1972.36
768.306	1079.45
768.683	1048.73
769.06	2318.47
769.437	2107.53
769.814	870.56
770.192	997.53
770.57	1972.36
770.948	2666.63
771.327	1222.81
771.706	927.9
772.085	2197.64
772.464	2375.81
772.844	1110.17
773.224	854.17
773.605	1460.37
773.985	1773.71
774.366	1063.07
774.748	1341.59
775.129	2201.74
775.511	1984.65
775.893	977.05
776.276	987.29
776.658	2310.28
777.041	1939.6
777.425	649.38
777.808	960.67
778.192	1585.3
778.576	2222.22
778.961	534.69
779.346	755.87
779.731	1968.27
780.116	1329.3
780.502	749.73
780.888	845.98
781.274	1706.13
781.661	1374.36
782.048	544.93
782.435	667.81
782.823	1603.73
783.21	1820.81
783.598	655.52
783.987	841.89
784.376	2050.19
784.765	1484.95
785.154	768.16
785.544	635.04
785.933	1829.01
786.324	1423.51
786.714	987.29
787.105	454.82
787.496	1685.65
787.888	1380.5
788.279	563.36
788.671	510.11
789.064	1570.96
789.456	1697.94
789.849	370.85
790.242	342.18
790.636	1265.82
791.03	1665.17
791.424	411.81
791.818	2066.57
792.213	1771.66
792.608	1525.91
793.004	731.3
793.399	241.83
793.795	1435.8
794.192	1347.73
794.588	438.44
794.985	82.09
795.382	1372.31
795.78	1411.22
796.178	600.23
796.576	391.33
796.974	2013.32
797.373	1548.44
797.772	301.22
798.172	239.78
798.571	1274.01
798.971	1687.7
799.372	463.01
799.772	516.26
800.173	1689.74
800.574	1239.19
800.976	438.44
801.378	192.68
801.78	942.24
802.182	813.21
802.585	487.59
802.988	231.59
803.392	1011.87
803.795	960.67
804.199	207.02
804.604	458.92
805.008	1374.36
805.413	1722.51
805.819	379.04
806.224	129.19
806.63	1231
807.036	1421.46
807.443	346.28
807.85	309.41
808.257	1304.73
808.664	1169.56
809.072	649.38
809.48	405.67
809.889	1501.33
810.297	1349.78
810.706	487.59
811.116	131.24
811.526	1003.68
811.936	977.05
812.346	84.14
812.757	149.67
813.167	1183.9
813.579	977.05
813.99	266.41
814.402	-28.5
814.814	1611.92
815.227	987.29
815.64	-8.02
816.053	182.44
816.467	1394.84
816.88	1106.07
817.294	372.9
817.709	305.32
818.124	938.14
818.539	1564.82
818.954	284.84
819.37	436.39
819.786	669.86
820.202	1263.77
820.619	-323.41
821.036	-30.55
821.453	1433.75
821.871	1198.23
822.289	-22.36
822.707	-91.99
823.126	1185.94
823.545	581.79
823.964	45.23
824.384	-3.93
824.804	733.34
825.224	1265.82
825.645	313.51
826.065	-48.98
826.487	1280.15
826.908	1263.77
827.33	20.65
827.752	325.8
828.175	1089.69
828.598	1253.53
829.021	346.28
829.444	710.82
829.868	1087.64
830.292	690.34
830.717	-198.48
831.142	-65.36
831.567	739.49
831.992	880.8
832.418	501.92
832.844	-124.76
833.27	952.48
833.697	837.79
834.124	-350.03
834.552	-235.35
834.979	1378.45
835.408	944.28
835.836	-231.25
836.265	30.89
836.694	704.67
837.123	1061.02
837.553	-280.4
837.983	-298.83
838.413	1144.99
838.844	1003.68
839.275	-235.35
839.706	123.05
840.138	1400.98
840.57	608.42
841.003	-71.51
841.435	30.89
841.868	589.99
842.302	661.66
842.735	84.14
843.169	-249.68
843.604	888.99
844.039	854.17
844.474	-237.39
844.909	-221.01
845.345	1018.01
845.781	966.81
846.217	-259.92
846.654	-251.73
847.091	950.43
847.528	655.52
847.966	-259.92
848.404	-108.37
848.842	1370.26
849.281	194.73
849.72	-44.88
850.16	-276.31
850.599	589.99
851.039	581.79
851.48	159.91
851.921	-163.67
852.362	886.94
852.803	1132.7
853.245	-554.83
853.687	-155.47
854.129	968.86
854.572	673.95
855.015	-347.98
855.459	-329.55
855.903	436.39
856.347	989.34
856.791	-141.14
857.236	-259.92
857.681	1312.92
858.127	1587.35
858.572	71.85
859.019	-329.55
859.465	1003.68
859.912	774.3
860.359	-538.45
860.807	-423.76
861.255	583.84
861.703	1026.2
862.151	-135
862.6	239.78
863.05	854.17
863.499	608.42
863.949	-304.98
864.4	-417.61
864.85	1222.81
865.301	878.75
865.752	-255.83
866.204	-341.84
866.656	456.87
867.109	1038.49
867.561	-337.74
868.014	-5.97
868.468	897.18
868.921	952.48
869.376	-178
869.83	-200.53
870.285	749.73
870.74	415.91
871.195	-239.44
871.651	-173.91
872.107	1132.7
872.564	538.79
873.021	-468.81
873.478	-560.97
873.936	888.99
874.394	905.37
874.852	-315.22
875.31	-135
875.769	645.28
876.229	1212.57
876.688	-91.99
877.148	-272.21
877.609	530.59
878.069	481.44
878.531	-34.64
878.992	-479.05
879.454	686.24
879.916	592.03
880.378	-274.26
880.841	-272.21
881.304	92.33
881.768	239.78
882.232	-350.03
882.696	-85.84
883.161	207.02
883.626	669.86
884.091	-284.5
884.557	-296.78
885.023	321.7
885.489	788.64
885.956	-632.65
886.423	-436.05
886.89	121
887.358	663.71
887.826	-345.94
888.295	-296.78
888.763	391.33
889.233	1226.9
889.702	-335.7
890.172	-407.38
890.642	493.73
891.113	518.31
891.584	-87.89
892.055	-292.69
892.527	764.06
892.999	954.52
893.472	-370.51
893.944	-139.09
894.417	471.2
894.891	245.93
895.365	-153.43
895.839	-264.02
896.314	690.34
896.789	-130.9
897.264	-472.91
897.74	-554.83
898.216	948.38
898.692	809.12
899.169	-474.96
899.646	-468.81
900.123	659.62
900.601	1046.68
901.079	-544.59
901.558	-284.5
902.037	872.61
902.516	649.38
902.996	-581.45
903.476	-497.49
903.956	413.86
904.437	759.97
904.918	-403.28
905.399	-597.84
905.881	743.58
906.363	665.76
906.846	-491.34
907.329	-333.65
907.812	86.19
908.296	676
908.78	-651.08
909.264	-628.56
909.749	321.7
910.234	864.41
910.719	-589.64
911.205	-239.44
911.691	-30.55
912.178	714.91
912.665	-12.12
913.152	-548.68
913.64	276.65
914.128	725.15
914.616	-440.14
915.105	-540.49
915.594	616.61
916.084	968.86
916.574	-347.98
917.064	-663.37
917.555	73.9
918.046	641.18
918.537	10.41
919.029	-819.02
919.521	381.09
920.013	979.1
920.506	-247.63
920.999	-603.98
921.493	874.65
921.987	276.65
922.481	-259.92
922.976	-495.44
923.471	426.15
923.967	555.17
924.462	-276.31
924.959	-429.9
925.455	618.66
925.952	477.35
926.449	-595.79
926.947	-481.1
927.445	489.64
927.944	522.4
928.442	-767.82
928.942	-603.98
929.441	741.54
929.941	145.58
930.442	-595.79
930.942	-411.47
931.443	829.6
931.945	86.19
932.447	-642.89
932.949	-472.91
933.451	340.13
933.954	372.9
934.458	-354.13
934.961	-573.26
935.465	264.36
935.97	186.54
936.475	-272.21
936.98	-653.13
937.486	-26.45
937.992	178.34
938.498	-530.25
939.005	-452.43
939.512	266.41
940.019	663.71
940.527	-370.51
941.035	-251.73
941.544	665.76
942.053	374.95
942.562	-157.52
943.072	-151.38
943.582	698.53
944.093	321.7
944.604	-661.32
945.115	-530.25
945.627	813.21
946.139	979.1
946.651	-479.05
947.164	-343.89
947.677	559.27
948.191	530.59
948.705	-585.55
949.219	-751.43
949.734	256.17
950.249	739.49
950.765	-472.91
951.281	-460.62
951.797	1349.78
952.314	837.79
952.831	-479.05
953.348	-708.43
953.866	659.62
954.384	407.72
954.903	-571.21
955.422	-710.47
955.941	362.66
956.461	420
956.981	-534.35
957.502	-337.74
958.023	676
958.544	477.35
959.066	-452.43
959.588	-653.13
960.11	200.87
960.633	827.55
961.156	-472.91
961.68	-544.59
962.204	794.78
962.729	67.75
963.253	-575.31
963.779	-36.69
964.304	514.21
964.83	960.67
965.357	-702.28
965.883	-405.33
966.411	430.24
966.938	669.86
967.466	-399.18
967.994	-733
968.523	200.87
969.052	917.66
969.582	-567.12
970.112	-673.61
970.642	118.95
971.173	864.41
971.704	-636.75
972.235	-472.91
972.767	604.32
973.3	420
973.832	-264.02
974.365	-767.82
974.899	542.88
975.433	628.9
975.967	-743.24
976.502	-325.46
977.037	377
977.572	917.66
978.108	-644.94
978.644	-780.11
979.181	1204.38
979.718	657.57
980.255	-989
980.793	-358.22
981.331	-233.3
981.87	714.91
982.409	-497.49
982.948	-300.88
983.488	333.99
984.028	850.08
984.569	-378.7
985.11	-565.07
985.651	725.15
986.193	661.66
986.735	-798.54
987.278	-773.96
987.821	-55.12
988.364	231.59
988.908	-407.38
989.452	-663.37
989.997	-300.88
990.542	434.34
991.088	-608.08
991.633	-243.54
992.18	276.65
992.726	-151.38
993.273	-542.54
993.821	-427.85
994.369	430.24
994.917	837.79
995.465	-640.84
996.014	-788.3
996.564	731.3
997.114	116.9
997.664	-276.31
998.215	-726.86
998.766	508.07
999.317	45.23
999.869	-532.3
1000.421	-753.48
1000.974	649.38
1001.527	608.42
1002.081	-661.32
1002.635	-225.11
1003.189	479.4
1003.744	770.21
1004.299	-763.72
1004.854	-634.7
1005.41	747.68
1005.967	301.22
1006.523	-427.85
1007.081	-444.24
1007.638	460.96
1008.196	499.88
1008.755	-659.28
1009.313	-421.71
1009.873	628.9
1010.432	16.55
1010.992	-243.54
1011.553	-405.33
1012.114	407.72
1012.675	-46.93
1013.237	-472.91
1013.799	-194.39
1014.361	553.12
1014.924	-38.74
1015.487	-806.73
1016.051	-489.29
1016.615	807.07
1017.18	463.01
1017.745	-540.49
1018.31	-169.81
1018.876	968.86
1019.442	471.2
1020.009	-464.72
1020.576	-853.83
1021.143	272.55
1021.711	706.72
1022.28	-534.35
1022.848	-571.21
1023.417	757.92
1023.987	301.22
1024.557	-644.94
1025.127	-608.08
1025.698	-94.04
1026.269	63.66
1026.841	-767.82
1027.413	-479.05
1027.985	209.06
1028.558	364.71
1029.131	-665.42
1029.705	-489.29
1030.279	415.91
1030.854	469.16
1031.429	-603.98
1032.004	-124.76
1032.58	782.49
1033.156	26.79
1033.733	-632.65
1034.31	-636.75
1034.887	567.46
1035.465	811.17
1036.043	-943.94
1036.622	-423.76
1037.201	288.93
1037.781	612.51
1038.361	-716.62
1038.941	-743.24
1039.522	518.31
1040.103	708.77
1040.685	-692.04
1041.267	-345.94
1041.85	1177.75
1042.433	649.38
1043.016	-649.04
1043.6	-513.87
1044.184	-231.25
1044.769	567.46
1045.354	-454.48
1045.939	-804.68
1046.525	293.03
1047.111	534.69
1047.698	-386.9
1048.285	-812.87
1048.873	436.39
1049.461	12.46
1050.049	-612.17
1050.638	-661.32
1051.228	84.14
1051.817	807.07
1052.407	-630.6
1052.998	-235.35
1053.589	581.79
1054.18	676
1054.772	-948.04
1055.365	-702.28
1055.957	497.83
1056.55	274.6
1057.144	-569.16
1057.738	-694.09
1058.333	202.92
1058.927	196.78
1059.523	-603.98
1060.118	-708.43
1060.715	69.8
1061.311	592.03
1061.908	-849.74
1062.506	-415.57
1063.103	493.73
1063.702	14.51
1064.3	-943.94
1064.9	-735.05
1065.499	942.24
1066.099	67.75
1066.7	-587.6
1067.301	-857.93
1067.902	888.99
1068.504	792.73
1069.106	-354.13
1069.709	-462.67
1070.312	772.25
1070.915	452.77
1071.519	-692.04
1072.123	-423.76
1072.728	659.62
1073.333	315.56
1073.939	-266.07
1074.545	-585.55
1075.152	600.23
1075.759	71.85
1076.366	-771.91
1076.974	-296.78
1077.582	303.27
1078.191	704.67
1078.8	-571.21
1079.41	-907.08
1080.02	303.27
1080.63	370.85
1081.241	-104.28
1081.852	-954.18
1082.464	372.9
1083.076	481.44
1083.689	-677.71
1084.302	-622.41
1084.915	753.82
1085.529	479.4
1086.144	-606.03
1086.759	-448.33
1087.374	178.34
1087.99	239.78
1088.606	-683.85
1089.222	-589.64
1089.839	659.62
1090.457	391.33
1091.075	-499.53
1091.693	-771.91
1092.312	434.34
1092.931	927.9
1093.551	-749.39
1094.171	-296.78
1094.792	420
1095.413	80.04
1096.034	-493.39
1096.656	-520.01
1097.278	700.58
1097.901	266.41
1098.524	-620.36
1099.148	-296.78
1099.772	792.73
1100.397	358.57
1101.022	-816.97
1101.647	-515.92
1102.273	530.59
1102.899	641.18
1103.526	-1013.57
1104.153	-425.81
1104.781	600.23
1105.409	866.46
1106.038	-681.8
1106.667	-898.89
1107.296	118.95
1107.926	333.99
1108.556	-153.43
1109.187	-538.45
1109.818	401.57
1110.45	604.32
1111.082	-505.68
1111.715	-661.32
1112.348	393.38
1112.981	338.09
1113.615	-251.73
1114.25	-587.6
1114.885	209.06
1115.52	241.83
1116.156	-821.06
1116.792	-616.27
1117.428	596.13
1118.066	174.25
1118.703	-331.6
1119.341	-608.08
1119.98	628.9
1120.618	888.99
1121.258	-712.52
1121.898	-804.68
1122.538	299.17
1123.179	-61.27
1123.82	-472.91
1124.461	-489.29
1125.103	653.47
1125.746	112.81
1126.389	-374.61
1127.032	-776.01
1127.676	460.96
1128.32	864.41
1128.965	-513.87
1129.61	-378.7
1130.256	184.49
1130.902	721.06
1131.549	-634.7
1132.196	-667.47
1132.844	700.58
1133.491	708.77
1134.14	-546.64
1134.789	-571.21
1135.438	995.48
1136.088	215.21
1136.738	-794.44
1137.389	-677.71
1138.04	544.93
1138.692	878.75
1139.344	-685.9
1139.996	-679.75
1140.649	483.49
1141.303	637.09
1141.957	-503.63
1142.611	-495.44
1143.266	342.18
1143.921	469.16
1144.577	-593.74
1145.233	-614.22
1145.89	114.86
1146.547	649.38
1147.205	-792.39
1147.863	-513.87
1148.521	452.77
1149.18	710.82
1149.84	-751.43
1150.5	-638.8
1151.16	301.22
1151.821	682.14
1152.482	-483.15
1153.144	-96.08
1153.806	420
1154.469	530.59
1155.132	-696.14
1155.796	-505.68
1156.46	575.65
1157.124	1007.77
1157.789	-739.15
1158.455	-665.42
1159.121	372.9
1159.787	84.14
1160.454	-571.21
1161.121	-427.85
1161.789	319.65
1162.457	555.17
1163.126	-532.3
1163.795	-581.45
1164.465	469.16
1165.135	211.11
1165.806	-522.06
1166.477	-538.45
1167.148	-280.4
1167.82	469.16
1168.493	-894.79
1169.166	-409.42
1169.839	123.05
1170.513	411.81
1171.187	-808.78
1171.862	-577.36
1172.537	297.13
1173.213	434.34
1173.889	-612.17
1174.566	-620.36
1175.243	733.34
1175.921	309.41
1176.599	-513.87
1177.278	-405.33
1177.957	-16.21
1178.636	774.3
1179.316	-448.33
1179.997	-837.45
1180.678	647.33
1181.359	772.25
1182.041	-716.62
1182.723	-710.47
1183.406	719.01
1184.089	129.19
1184.773	-739.15
1185.457	-808.78
1186.142	186.54
1186.827	1271.96
1187.513	-780.11
1188.199	-302.93
1188.886	63.66
1189.573	395.43
1190.26	-616.27
1190.948	-624.46
1191.637	59.56
1192.326	182.44
1193.015	-710.47
1193.705	-845.64
1194.396	118.95
1195.087	305.32
1195.778	-464.72
1196.47	-745.29
1197.162	274.6
1197.855	565.41
1198.548	-653.13
1199.242	-800.59
1199.936	471.2
1200.631	602.27
1201.326	-784.2
1202.022	-657.23
1202.718	690.34
1203.415	460.96
1204.112	-923.46
1204.81	-554.83
1205.508	174.25
1206.206	1108.12
1206.905	-720.71
1207.605	-689.99
1208.305	270.5
1209.005	420
1209.706	-677.71
1210.408	-696.14
1211.11	350.37
1211.812	524.45
1212.515	-573.26
1213.218	-638.8
1213.922	407.72
1214.627	336.04
1215.331	-563.02
1216.037	-610.12
1216.743	-20.31
1217.449	491.68
1218.156	-425.81
1218.863	-452.43
1219.571	266.41
1220.279	839.84
1220.988	-730.95
1221.697	-624.46
1222.406	503.97
1223.117	73.9
1223.827	-472.91
1224.538	-634.7
1225.25	370.85
1225.962	393.38
1226.675	-857.93
1227.388	-563.02
1228.101	313.51
1228.815	100.52
1229.53	-603.98
1230.245	-573.26
1230.961	446.63
1231.677	211.11
1232.393	-632.65
1233.11	-616.27
1233.828	927.9
1234.546	438.44
1235.264	-634.7
1235.983	-292.69
1236.702	1108.12
1237.422	389.28
1238.143	-397.14
1238.864	-634.7
1239.585	733.34
1240.307	-261.97
1241.029	-802.63
1241.752	-323.41
1242.476	585.89
1243.2	874.65
1243.924	-528.21
1244.649	-563.02
1245.374	696.48
1246.1	888.99
1246.826	-923.46
1247.553	-620.36
1248.28	465.06
1249.008	530.59
1249.737	-800.59
1250.465	-466.77
1251.195	432.29
1251.925	774.3
1252.655	-661.32
1253.386	-333.65
1254.117	336.04
1254.849	153.77
1255.581	-632.65
1256.314	-538.45
1257.047	692.38
1257.781	563.36
1258.515	-667.47
1259.25	-157.52
1259.985	338.09
1260.721	436.39
1261.457	-372.56
1262.194	-913.22
1262.931	209.06
1263.669	872.61
1264.407	-522.06
1265.146	-741.19
1265.885	432.29
1266.625	338.09
1267.365	-546.64
1268.106	-640.84
1268.847	391.33
1269.589	217.26
1270.331	-438.09
1271.074	-505.68
1271.817	366.76
1272.561	350.37
1273.305	-317.26
1274.05	-431.95
1274.795	411.81
1275.541	344.23
1276.287	-878.41
1277.034	-804.68
1277.781	96.43
1278.529	592.03
1279.277	-870.22
1280.026	-868.17
1280.775	835.74
1281.525	-390.99
1282.275	-972.61
1283.026	-214.87
1283.777	393.38
1284.529	432.29
1285.281	-577.36
1286.034	-776.01
1286.788	782.49
1287.541	456.87
1288.296	-874.31
1289.051	-362.32
1289.806	534.69
1290.562	626.85
1291.318	-765.77
1292.075	-526.16
1292.832	712.86
1293.59	784.54
1294.349	-726.86
1295.108	-761.67
1295.867	1018.01
1296.627	583.84
1297.387	-773.96
1298.148	-538.45
1298.91	362.66
1299.672	51.37
1300.434	-616.27
1301.197	-790.35
1301.961	1417.37
1302.725	354.47
1303.489	-395.09
1304.254	-489.29
1305.02	473.25
1305.786	809.12
1306.552	-888.65
1307.319	-925.51
1308.087	860.32
1308.855	829.6
1309.624	-685.9
1310.393	-558.92
1311.162	-132.95
1311.933	551.07
1312.703	-636.75
1313.474	-436.05
1314.246	293.03
1315.018	645.28
1315.791	-292.69
1316.564	-773.96
1317.338	669.86
1318.112	303.27
1318.887	-892.74
1319.662	-573.26
1320.438	370.85
1321.214	217.26
1321.991	-407.38
1322.769	-714.57
1323.546	405.67
1324.325	49.32
1325.104	-784.2
1325.883	-610.12
1326.663	-155.47
1327.444	477.35
1328.224	-624.46
1329.006	-448.33
1329.788	391.33
1330.571	315.56
1331.354	-214.87
1332.137	-782.15
1332.921	753.82
1333.706	6.31
1334.491	-405.33
1335.277	-472.91
1336.063	125.1
1336.849	321.7
1337.637	-726.86
1338.424	-706.38
1339.213	1095.83
1340.001	809.12
1340.791	-757.58
1341.581	-401.23
1342.371	530.59
1343.162	317.61
1343.953	-595.79
1344.745	-479.05
1345.537	495.78
1346.33	536.74
1347.124	-624.46
1347.918	-434
1348.712	956.57
1349.507	571.55
1350.303	-694.09
1351.099	-509.77
1351.896	141.48
1352.693	-186.19
1353.49	-644.94
1354.289	-591.69
1355.087	581.79
1355.887	764.06
1356.686	-513.87
1357.487	-677.71
1358.288	108.71
1359.089	252.07
1359.891	-151.38
1360.693	-460.62
1361.496	2.22
1362.3	256.17
1363.104	-616.27
1363.908	-687.95
1364.713	880.8
1365.519	866.46
1366.325	-628.56
1367.131	-790.35
1367.939	276.65
1368.746	858.27
1369.555	-956.23
1370.363	-505.68
1371.173	807.07
1371.982	1288.34
1372.793	-749.39
1373.604	-921.42
1374.415	563.36
1375.227	800.93
1376.039	-743.24
1376.852	-747.34
1377.666	1071.26
1378.48	379.04
1379.295	-796.49
1380.11	-800.59
1380.925	-22.36
1381.742	940.19
1382.558	-610.12
1383.376	-599.88
1384.193	463.01
1385.012	186.54
1385.831	-620.36
1386.65	-608.08
1387.47	65.71
1388.29	266.41
1389.111	-601.93
1389.933	-872.26
1390.755	751.78
1391.578	317.61
1392.401	-870.22
1393.225	-618.32
1394.049	821.41
1394.873	217.26
1395.699	-702.28
1396.525	-524.11
1397.351	790.69
1398.178	-30.55
1399.005	-573.26
1399.833	-1001.29
1400.662	602.27
1401.491	929.95
1402.321	-653.13
1403.151	-577.36
1403.981	436.39
1404.813	516.26
1405.644	-462.67
1406.477	-675.66
1407.309	313.51
1408.143	1063.07
1408.977	-706.38
1409.811	-689.99
1410.646	981.15
1411.482	727.2
1412.318	-513.87
1413.155	-630.6
1413.992	700.58
1414.829	16.55
1415.668	-595.79
1416.506	-325.46
1417.346	735.39
1418.186	407.72
1419.026	-673.61
1419.867	-841.54
1420.709	632.99
1421.551	616.61
1422.393	-972.61
1423.236	-477.01
1424.08	391.33
1424.924	358.57
1425.769	-782.15
1426.614	-628.56
1427.46	602.27
1428.307	211.11
1429.154	-849.74
1430.001	-800.59
1430.849	290.98
1431.698	258.21
1432.547	-923.46
1433.397	-878.41
1434.247	708.77
1435.098	905.37
1435.949	-677.71
1436.801	-628.56
1437.653	229.54
1438.506	528.55
1439.36	-915.27
1440.214	-773.96
1441.069	626.85
1441.924	420
1442.78	-671.56
1443.636	-849.74
1444.493	325.8
1445.35	444.58
1446.208	-513.87
1447.067	-773.96
1447.926	399.52
1448.785	788.64
1449.645	-624.46
1450.506	-753.48
1451.367	329.89
1452.229	28.84
1453.091	-773.96
1453.954	-345.94
1454.818	217.26
1455.682	370.85
1456.546	-642.89
1457.412	-911.18
1458.277	759.97
1459.143	313.51
1460.01	-444.24
1460.878	-780.11
1461.745	411.81
1462.614	254.12
1463.483	-882.5
1464.352	-532.3
1465.223	815.26
1466.093	673.95
1466.964	-741.19
1467.836	-778.06
1468.709	686.24
1469.581	321.7
1470.455	-534.35
1471.329	-714.57
1472.203	10.41
1473.079	194.73
1473.954	-264.02
1474.831	-866.12
1475.707	108.71
1476.585	207.02
1477.463	-782.15
1478.341	-585.55
1479.22	-22.36
1480.1	397.48
1480.98	-931.66
1481.861	-829.26
1482.742	475.3
1483.624	632.99
1484.506	-501.58
1485.389	-610.12
1486.273	268.45
1487.157	102.57
1488.041	-726.86
1488.926	-780.11
1489.812	479.4
1490.699	428.2
1491.585	-730.95
1492.473	-571.21
1493.361	-171.86
1494.249	293.03
1495.139	-544.59
1496.028	-593.74
1496.919	4.27
1497.809	456.87
1498.701	-728.91
1499.593	-677.71
1500.485	293.03
1501.378	680.1
1502.272	-354.13
1503.166	-560.97
1504.061	690.34
1504.956	487.59
1505.852	-739.15
1506.749	-833.35
1507.646	501.92
1508.543	354.47
1509.442	-819.02
1510.34	-100.18
1511.24	1048.73
1512.14	415.91
1513.04	-749.39
1513.941	-845.64
1514.843	1196.18
1515.745	24.75
1516.648	-620.36
1517.551	-831.3
1518.455	-108.37
1519.359	-274.26
1520.264	-689.99
1521.17	-866.12
1522.076	272.55
1522.983	598.18
1523.89	-833.35
1524.798	-456.53
1525.706	397.48
1526.615	1398.93
1527.525	-800.59
1528.435	-583.5
1529.346	512.16
1530.257	53.42
1531.169	-407.38
1532.081	-761.67
1532.994	1042.59
1533.908	221.35
1534.822	-710.47
1535.737	-558.92
1536.652	487.59
1537.568	260.26
1538.484	-692.04
1539.401	-939.85
1540.319	839.84
1541.237	-40.79
1542.156	-839.5
1543.075	-735.05
1543.995	983.2
1544.916	1087.64
1545.837	-845.64
1546.758	-745.29
1547.68	655.52
1548.603	690.34
1549.527	-595.79
1550.451	-862.02
1551.375	559.27
1552.3	798.88
1553.226	-972.61
1554.152	-730.95
1555.079	768.16
1556.006	430.24
1556.934	-446.29
1557.863	-587.6
1558.792	913.56
1559.722	108.71
1560.652	-511.82
1561.583	-956.23
1562.514	-5.97
1563.446	125.1
1564.379	-1046.34
1565.312	-511.82
1566.246	776.35
1567.18	364.71
1568.115	-558.92
1569.051	-726.86
1569.987	768.16
1570.924	1050.78
1571.861	-866.12
1572.799	-565.07
1573.737	661.66
1574.676	321.7
1575.616	-552.78
1576.556	-708.43
1577.497	-36.69
1578.438	245.93
1579.38	-651.08
1580.323	-526.16
1581.266	420
1582.21	784.54
1583.154	-759.63
1584.099	-825.16
1585.044	510.11
1585.99	712.86
1586.937	-427.85
1587.884	-661.32
1588.832	411.81
1589.78	798.88
1590.729	-653.13
1591.679	-374.61
1592.629	311.46
1593.58	608.42
1594.531	-642.89
1595.483	-479.05
1596.435	178.34
1597.388	88.23
1598.342	-384.85
1599.296	-509.77
1600.251	465.06
1601.207	731.3
1602.163	-616.27
1603.119	-792.39
1604.077	800.93
1605.034	850.08
1605.993	-481.1
1606.952	-3.93
1607.911	270.5
1608.872	450.72
1609.832	-710.47
1610.794	-816.97
1611.756	600.23
1612.718	532.64
1613.681	-264.02
1614.645	-651.08
1615.609	833.69
1616.574	346.28
1617.54	-186.19
1618.506	-642.89
1619.472	686.24
1620.44	714.91
1621.408	-120.66
1622.376	-538.45
1623.345	356.52
1624.315	710.82
1625.285	-530.25
1626.256	-511.82
1627.227	592.03
1628.199	-30.55
1629.172	-409.42
1630.145	-397.14
1631.119	485.54
1632.094	1083.55
1633.069	-530.25
1634.044	-374.61
1635.02	278.69
1635.997	755.87
1636.975	-603.98
1637.953	-812.87
1638.931	1038.49
1639.911	18.6
1640.89	-710.47
1641.871	-679.75
1642.852	612.51
1643.833	542.88
1644.816	-808.78
1645.798	-866.12
1646.782	919.71
1647.766	225.45
1648.75	-739.15
1649.736	-767.82
1650.721	53.42
1651.708	391.33
1652.695	-636.75
1653.682	-497.49
1654.671	430.24
1655.66	665.76
1656.649	-677.71
1657.639	-610.12
1658.63	-59.22
1659.621	184.49
1660.613	-905.03
1661.605	-862.02
1662.598	207.02
1663.592	274.6
1664.586	-878.41
1665.581	-841.54
1666.576	243.88
1667.572	415.91
1668.569	-628.56
1669.566	-794.44
1670.564	534.69
1671.563	708.77
1672.562	-706.38
1673.562	-376.66
1674.562	405.67
1675.563	512.16
1676.564	-436.05
1677.566	-644.94
1678.569	952.48
1679.572	-307.02
1680.576	-593.74
1681.581	-743.24
1682.586	133.29
1683.592	473.25
1684.598	-538.45
1685.605	-423.76
1686.613	585.89
1687.621	356.52
1688.63	-517.97
1689.639	-438.09
1690.649	153.77
1691.66	358.57
1692.671	-538.45
1693.683	-714.57
1694.696	133.29
1695.709	497.83
1696.722	-694.09
1697.737	-481.1
1698.752	121
1699.767	444.58
1700.783	-644.94
1701.8	-403.28
1702.818	403.62
1703.836	-48.98
1704.854	-821.06
1705.873	-644.94
1706.893	215.21
1707.914	383.14
1708.935	-610.12
1709.956	-544.59
1710.979	272.55
1712.002	383.14
1713.025	-673.61
1714.049	-528.21
1715.074	493.73
1716.099	546.98
1717.125	-808.78
1718.152	-767.82
1719.179	96.43
1720.207	637.09
1721.235	-116.56
1722.265	-237.39
1723.294	297.13
1724.325	182.44
1725.355	-350.03
1726.387	-542.54
1727.419	325.8
1728.452	540.83
1729.485	-593.74
1730.519	-767.82
1731.554	63.66
1732.589	438.44
1733.625	-812.87
1734.662	-653.13
1735.699	-46.93
1736.736	743.58
1737.775	-675.66
1738.814	-661.32
1739.853	161.96
1740.894	116.9
1741.934	-554.83
1742.976	-687.95
1744.018	628.9
1745.061	321.7
1746.104	-700.23
1747.148	-735.05
1748.193	403.62
1749.238	362.66
1750.284	-626.51
1751.33	-733
1752.377	485.54
1753.425	1054.87
1754.473	-587.6
1755.522	-571.21
1756.572	753.82
1757.622	551.07
1758.673	-792.39
1759.724	-595.79
1760.776	782.49
1761.829	757.92
1762.882	-366.42
1763.936	-710.47
1764.991	55.47
1766.046	970.91
1767.102	-464.72
1768.158	-751.43
1769.215	407.72
1770.273	583.84
1771.331	-417.61
1772.39	-755.53
1773.45	477.35
1774.51	444.58
1775.571	-798.54
1776.632	-153.43
1777.694	356.52
1778.757	542.88
1779.82	-466.77
1780.884	-509.77
1781.949	202.92
1783.014	506.02
1784.08	-935.75
1785.147	-608.08
1786.214	182.44
1787.282	239.78
1788.35	-374.61
1789.419	-395.09
1790.489	759.97
1791.559	379.04
1792.63	-759.63
1793.702	-386.9
1794.774	350.37
1795.847	551.07
1796.92	-411.47
1797.994	-485.2
1799.069	587.94
1800.144	1124.51
1801.22	-704.33
1802.297	-292.69
1803.374	-26.45
1804.452	532.64
1805.531	-771.91
1806.61	-413.52
1807.69	534.69
1808.77	-124.76
1809.851	-419.66
1810.933	-1013.57
1812.015	651.42
1813.098	127.14
1814.182	-585.55
1815.266	-552.78
1816.351	354.47
1817.437	391.33
1818.523	-560.97
1819.61	-522.06
1820.697	346.28
1821.785	1130.65
1822.874	-554.83
1823.963	-642.89
1825.053	225.45
1826.144	579.75
1827.235	-603.98
1828.327	-673.61
1829.42	321.7
1830.513	-14.17
1831.607	-776.01
1832.701	-622.41
1833.796	350.37
1834.892	772.25
1835.989	-833.35
1837.086	-771.91
1838.183	417.96
1839.282	350.37
1840.381	-628.56
1841.48	-657.23
1842.581	495.78
1843.682	858.27
1844.783	-296.78
1845.885	-384.85
1846.988	780.45
1848.092	420
1849.196	-554.83
1850.301	-530.25
1851.406	92.33
1852.512	1036.44
1853.619	-579.4
1854.726	-700.23
1855.834	133.29
1856.943	708.77
1858.052	-741.19
1859.162	-565.07
1860.273	444.58
1861.384	714.91
1862.496	-620.36
1863.608	-657.23
1864.721	420
1865.835	186.54
1866.95	-665.42
1868.065	-667.47
1869.181	170.15
1870.297	657.57
1871.414	-325.46
1872.532	-845.64
1873.65	231.59
1874.769	256.17
1875.889	-667.47
1877.009	-259.92
1878.13	616.61
1879.252	764.06
1880.374	-534.35
1881.497	-663.37
1882.62	391.33
1883.745	237.74
1884.87	-825.16
1885.995	-898.89
1887.121	309.41
1888.248	121
1889.376	-878.41
1890.504	-726.86
1891.632	420
1892.762	32.94
1893.892	-665.42
1895.023	-434
1896.154	161.96
1897.286	219.3
1898.419	-710.47
1899.552	-599.88
1900.686	620.71
1901.821	542.88
1902.956	-689.99
1904.092	-599.88
1905.229	870.56
1906.366	600.23
1907.504	-702.28
1908.643	-704.33
1909.782	616.61
