Data from led2700K_USB4H112691__4__12-55-07-102.txt Node

Date: Tue Dec 17 12:55:07 CET 2024
User: Etudiants TP
Spectrometer: USB4H11269
Trigger mode: 4
Integration Time (sec): 1.000000E0
Scans to average: 1
Electric dark correction enabled: true
Nonlinearity correction enabled: false
Boxcar width: 0
XAxis mode: Wavelengths
Number of Pixels in Spectrum: 3648
>>>>>Begin Spectral Data<<<<<
286.377	-1643.32
286.631	-1643.32
286.884	-1643.32
287.138	-1688.38
287.391	-1651.52
287.644	-883.53
287.896	-639.82
288.149	685.22
288.401	500.9
288.653	-592.72
288.905	-496.46
289.157	955.55
289.409	273.57
289.661	-357.2
289.912	-783.18
290.163	548
290.414	789.66
290.665	-740.17
290.916	-631.63
291.166	613.54
291.417	1092.76
291.667	-682.83
291.917	-262.99
292.167	576.67
292.417	431.27
292.666	-754.51
292.916	-609.1
293.165	511.14
293.414	754.85
293.663	-922.44
293.912	-865.1
294.16	797.85
294.408	754.85
294.657	-684.87
294.905	-469.84
295.153	560.29
295.4	621.73
295.648	-834.38
295.895	-715.59
296.143	105.64
296.39	814.24
296.637	-693.07
296.884	-789.32
297.13	625.83
297.377	838.81
297.623	-533.33
297.869	-238.42
298.115	822.43
298.361	720.03
298.606	-795.47
298.852	-639.82
299.097	552.1
299.342	957.6
299.587	-478.03
299.832	-590.67
300.077	679.07
300.322	611.49
300.566	-686.92
300.81	-439.12
301.054	605.35
301.298	799.9
301.542	-209.75
301.785	-381.78
302.029	1004.7
302.272	679.07
302.515	-766.79
302.758	-535.37
303.001	847.01
303.244	758.94
303.486	-582.48
303.729	-910.15
303.971	1027.23
304.213	760.99
304.455	-901.96
304.696	-332.62
304.938	324.77
305.179	847.01
305.421	-455.5
305.662	-502.61
305.903	414.88
306.143	437.41
306.384	-418.64
306.625	-525.13
306.865	588.96
307.105	236.71
307.345	-537.42
307.585	-535.37
307.825	54.44
308.064	691.36
308.304	-570.19
308.543	-754.51
308.782	560.29
309.021	789.66
309.26	-365.39
309.499	-564.04
309.737	998.56
309.976	760.99
310.214	-717.64
310.452	-723.79
310.69	1209.5
310.928	232.62
311.165	-619.34
311.403	-547.66
311.64	951.45
311.878	644.26
312.115	-578.38
312.351	-488.27
312.588	474.28
312.825	1021.08
313.061	-791.37
313.298	-4.95
313.534	298.15
313.77	795.81
314.006	-627.53
314.241	-654.16
314.477	734.37
314.713	1240.22
314.948	-592.72
315.183	294.05
315.418	881.82
315.653	642.21
315.888	-750.41
316.122	-422.73
316.357	355.49
316.591	851.1
316.825	-529.23
317.059	-643.92
317.293	1035.42
317.527	550.05
317.76	-693.07
317.994	-480.08
318.227	621.73
318.46	1186.97
318.693	-707.4
318.926	-510.8
319.159	124.07
319.391	576.67
319.624	-783.18
319.856	-652.11
320.088	920.73
320.321	660.64
320.552	-377.68
320.784	-635.72
321.016	769.18
321.247	15.53
321.479	-441.17
321.71	-420.69
321.941	-111.44
322.172	1068.19
322.403	-750.41
322.633	-371.54
322.864	822.43
323.094	191.66
323.325	-52.05
323.555	-693.07
323.785	218.28
324.014	312.49
324.244	-510.8
324.474	-381.78
324.703	904.35
324.933	855.2
325.162	-361.3
325.391	-830.28
325.62	-13.14
325.848	875.68
326.077	-574.28
326.306	-414.54
326.534	724.13
326.762	965.79
326.99	-592.72
327.218	-306
327.446	937.12
327.674	105.64
327.901	-648.01
328.129	-652.11
328.356	830.62
328.583	187.56
328.81	-633.68
329.037	-525.13
329.264	388.26
329.491	849.05
329.717	-430.93
329.944	-703.31
330.17	410.79
330.396	181.42
330.622	-684.87
330.848	-361.3
331.074	435.36
331.299	1399.96
331.525	-715.59
331.75	-643.92
331.975	896.16
332.201	162.98
332.426	-867.14
332.65	-676.68
332.875	-150.36
333.1	402.6
333.324	-699.21
333.549	-719.69
333.773	306.34
333.997	560.29
334.221	-707.4
334.445	-650.06
334.668	615.59
334.892	1086.62
335.116	-375.63
335.339	-529.23
335.562	15.53
335.785	459.94
336.008	-324.43
336.231	-697.16
336.454	-183.12
336.676	916.64
336.899	-488.27
337.121	-287.57
337.343	56.49
337.566	562.34
337.788	-648.01
338.009	-695.11
338.231	87.21
338.453	423.08
338.674	3325.05
338.896	-537.42
339.117	60.59
339.338	1076.38
339.559	-738.12
339.78	-590.67
340.001	48.3
340.222	801.95
340.442	-611.15
340.663	-228.18
340.883	781.47
341.103	496.8
341.323	-637.77
341.543	-480.08
341.763	808.09
341.983	412.84
342.202	-781.13
342.422	-678.73
342.641	1084.57
342.861	466.08
343.08	-156.5
343.299	-742.22
343.518	638.11
343.736	627.87
343.955	-590.67
344.174	-713.55
344.392	797.85
344.61	79.02
344.829	-766.79
345.047	-557.9
345.265	556.19
345.483	920.73
345.7	-611.15
345.918	-140.12
346.136	103.59
346.353	912.54
346.57	-758.6
346.788	-748.36
347.005	371.88
347.222	3.24
347.438	-43.86
347.655	-654.16
347.872	134.31
348.088	1059.99
348.305	-379.73
348.521	-605
348.737	232.62
348.953	1006.75
349.169	-232.27
349.385	-570.19
349.601	412.84
349.817	52.39
350.032	-189.27
350.248	-361.3
350.463	1270.94
350.678	-242.51
350.893	-662.35
351.108	-779.08
351.323	210.09
351.538	777.37
351.753	-725.83
351.967	-549.71
352.182	873.63
352.396	316.58
352.61	-662.35
352.824	-547.66
353.038	599.2
353.252	941.21
353.466	-463.69
353.68	-617.29
353.894	357.54
354.107	177.32
354.32	-432.97
354.534	-607.05
354.747	711.84
354.96	36.01
355.173	-408.4
355.386	-807.75
355.599	537.76
355.811	281.77
356.024	-639.82
356.236	-504.65
356.449	283.81
356.661	322.73
356.873	-789.32
357.085	-850.76
357.297	695.46
357.509	681.12
357.721	-586.57
357.933	-639.82
358.144	273.57
358.356	195.75
358.567	-357.2
358.778	-678.73
358.989	928.92
359.2	197.8
359.411	-557.9
359.622	-365.39
359.833	613.54
360.044	371.88
360.254	-600.91
360.465	-717.64
360.675	529.57
360.885	371.88
361.096	-772.94
361.306	-562
361.516	216.23
361.726	363.69
361.935	-871.24
362.145	-545.61
362.355	543.91
362.564	527.52
362.774	-789.32
362.983	-879.43
363.192	965.79
363.401	203.94
363.61	-750.41
363.819	-365.39
364.028	472.23
364.237	892.06
364.445	-607.05
364.654	-379.73
364.862	451.75
365.071	101.55
365.279	-551.76
365.487	-680.78
365.695	595.11
365.903	367.78
366.111	-684.87
366.319	-572.24
366.527	687.26
366.734	427.17
366.942	-451.41
367.149	-832.33
367.357	-502.61
367.564	1010.84
367.771	-490.32
367.978	-758.6
368.185	117.93
368.392	396.45
368.599	-414.54
368.806	-607.05
369.013	-41.81
369.219	443.56
369.426	-803.66
369.632	-252.75
369.838	1150.11
370.044	625.83
370.251	-578.38
370.457	-521.04
370.663	904.35
370.868	418.98
371.074	-562
371.28	-633.68
371.485	-148.31
371.691	578.72
371.896	-662.35
372.102	-760.65
372.307	1080.47
372.512	789.66
372.717	-627.53
372.922	-224.08
373.127	68.78
373.332	451.75
373.537	-609.1
373.741	-541.52
373.946	615.59
374.151	185.51
374.355	-774.99
374.559	-518.99
374.764	203.94
374.968	-297.81
375.172	-684.87
375.376	-297.81
375.58	461.99
375.784	36.01
375.987	-770.89
376.191	-617.29
376.395	179.37
376.598	273.57
376.802	-652.11
377.005	-209.75
377.208	167.08
377.412	46.25
377.615	-799.56
377.818	-627.53
378.021	232.62
378.224	-47.96
378.426	-658.25
378.629	-895.82
378.832	787.61
379.034	634.02
379.237	-881.48
379.439	-906.06
379.642	789.66
379.844	421.03
380.046	-906.06
380.248	-777.03
380.45	-107.35
380.652	-217.94
380.854	-557.9
381.056	-729.93
381.258	384.16
381.459	470.18
381.661	-844.62
381.862	-414.54
382.064	-31.57
382.265	158.89
382.467	-813.9
382.668	-545.61
382.869	699.55
383.07	461.99
383.271	-529.23
383.472	-680.78
383.673	668.83
383.874	349.35
384.074	-455.5
384.275	-838.47
384.476	502.95
384.676	1053.85
384.876	-791.37
385.077	-607.05
385.277	726.18
385.477	730.27
385.677	-764.75
385.878	-584.52
386.078	294.05
386.278	337.06
386.477	-385.87
386.677	-213.84
386.877	494.76
387.077	650.4
387.276	-414.54
387.476	-439.12
387.675	324.77
387.875	982.17
388.074	-754.51
388.273	-564.04
388.472	875.68
388.671	-127.83
388.87	-729.93
389.069	-168.79
389.268	-95.06
389.467	-23.38
389.666	-785.23
389.865	-226.13
390.063	568.48
390.262	775.33
390.461	-715.59
390.659	-729.93
390.857	586.91
391.056	588.96
391.254	-740.17
391.452	-674.64
391.65	685.22
391.849	396.45
392.047	-418.64
392.245	-150.36
392.442	222.38
392.64	431.27
392.838	-310.1
393.036	-512.85
393.233	257.19
393.431	306.34
393.629	-942.92
393.826	-512.85
394.023	345.25
394.221	-226.13
394.418	-504.65
394.615	-256.85
394.812	-148.31
395.01	687.26
395.207	-598.86
395.404	-758.6
395.601	863.39
395.797	441.51
395.994	-801.61
396.191	-650.06
396.388	146.6
396.584	597.15
396.781	-338.77
396.977	-111.44
397.174	617.63
397.37	15.53
397.567	-467.79
397.763	-705.35
397.959	312.49
398.155	380.07
398.352	-516.94
398.548	-365.39
398.744	451.75
398.94	429.22
399.136	-824.14
399.331	-293.71
399.527	406.69
399.723	457.89
399.919	-463.69
400.114	-494.41
400.31	263.33
400.505	558.24
400.701	-463.69
400.896	-535.37
401.092	162.98
401.287	349.35
401.482	-774.99
401.678	-430.93
401.873	642.21
402.068	617.63
402.263	-475.98
402.458	-527.18
402.653	93.35
402.848	588.96
403.043	-457.55
403.237	-693.07
403.432	66.73
403.627	-187.22
403.822	-789.32
404.016	-631.63
404.211	117.93
404.405	611.49
404.6	-281.43
404.794	-258.9
404.989	396.45
405.183	-13.14
405.377	-242.51
405.571	-232.27
405.766	554.15
405.96	208.04
406.154	-574.28
406.348	-406.35
406.542	494.76
406.736	548
406.93	-688.97
407.124	-488.27
407.318	390.31
407.511	406.69
407.705	-363.34
407.899	-617.29
408.092	433.32
408.286	445.6
408.48	-734.03
408.673	-602.96
408.867	52.39
409.06	418.98
409.253	-512.85
409.447	-453.45
409.64	593.06
409.833	396.45
410.026	-439.12
410.22	-392.02
410.413	545.95
410.606	392.36
410.799	-742.22
410.992	-553.8
411.185	261.29
411.378	990.36
411.571	-639.82
411.764	-439.12
411.956	539.81
412.149	447.65
412.342	-359.25
412.534	-465.74
412.727	597.15
412.92	371.88
413.112	-516.94
413.305	-230.23
413.497	752.8
413.69	492.71
413.882	-414.54
414.075	-267.09
414.267	486.56
414.459	302.25
414.652	-656.2
414.844	-559.95
415.036	380.07
415.228	756.9
415.42	-297.81
415.612	-568.14
415.804	910.49
415.997	402.6
416.188	-340.82
416.38	-412.5
416.572	216.23
416.764	677.02
416.956	-598.86
417.148	-523.09
417.34	275.62
417.531	-84.82
417.723	-602.96
417.915	-502.61
418.107	142.5
418.298	369.83
418.49	-306
418.681	-381.78
418.873	775.33
419.064	380.07
419.256	-430.93
419.447	-494.41
419.639	490.66
419.83	777.37
420.021	-328.53
420.213	-549.71
420.404	277.67
420.595	519.33
420.786	-342.86
420.978	-326.48
421.169	623.78
421.36	328.87
421.551	-484.17
421.742	-617.29
421.933	898.2
422.124	677.02
422.315	-437.07
422.506	-553.8
422.697	513.19
422.888	253.09
423.079	-164.69
423.27	-543.57
423.461	249
423.652	27.82
423.842	-582.48
424.033	-426.83
424.224	625.83
424.415	844.96
424.605	-402.26
424.796	-529.23
424.987	527.52
425.177	375.97
425.368	-811.85
425.558	-713.55
425.749	316.58
425.939	142.5
426.13	-93.01
426.32	-308.05
426.511	259.24
426.701	160.94
426.892	-486.22
427.082	-553.8
427.272	218.28
427.463	363.69
427.653	-379.73
427.843	-418.64
428.034	890.01
428.224	474.28
428.414	-652.11
428.604	-394.06
428.795	478.37
428.985	539.81
429.175	-240.47
429.365	-246.61
429.555	429.22
429.745	226.47
429.935	-430.93
430.126	-324.43
430.316	537.76
430.506	609.44
430.696	-406.35
430.886	-144.21
431.076	580.77
431.266	185.51
431.456	-95.06
431.645	-516.94
431.835	175.27
432.025	500.9
432.215	-553.8
432.405	-279.38
432.595	568.48
432.785	343.21
432.975	-576.33
433.164	-699.21
433.354	87.21
433.544	486.56
433.734	-602.96
433.923	-248.66
434.113	265.38
434.303	251.05
434.493	-230.23
434.682	-447.31
434.872	648.35
435.062	-58.2
435.251	-379.73
435.441	-377.68
435.631	797.85
435.82	335.01
436.01	-586.57
436.2	-310.1
436.389	318.63
436.579	793.76
436.768	-174.93
436.958	-123.73
437.147	457.89
437.337	687.26
437.527	-283.47
437.716	-410.45
437.906	799.9
438.095	304.29
438.285	-453.45
438.474	-275.28
438.664	861.34
438.853	576.67
439.043	-238.42
439.232	-500.56
439.422	562.34
439.611	595.11
439.8	-447.31
439.99	-95.06
440.179	654.5
440.369	928.92
440.558	-564.04
440.748	-353.1
440.937	306.34
441.126	158.89
441.316	-152.4
441.505	-379.73
441.695	783.52
441.884	1152.15
442.073	-193.36
442.263	-402.26
442.452	584.87
442.642	709.79
442.831	-316.24
443.02	1.19
443.21	959.64
443.399	1383.57
443.588	-254.8
443.778	-113.49
443.967	1019.04
444.156	752.8
444.346	-340.82
444.535	-387.92
444.725	1178.78
444.914	625.83
445.103	-314.19
445.293	-185.17
445.482	1047.71
445.671	674.98
445.861	7.34
446.05	52.39
446.239	840.86
446.429	515.23
446.618	-281.43
446.807	185.51
446.997	851.1
447.186	978.08
447.376	7.34
447.565	5.29
447.754	1191.06
447.944	1225.88
448.133	-64.34
448.322	-236.37
448.512	672.93
448.701	1295.51
448.891	-78.68
449.08	23.72
449.269	177.32
449.459	572.58
449.648	-70.48
449.838	-72.53
450.027	615.59
450.217	421.03
450.406	-154.45
450.595	150.7
450.785	922.78
450.974	949.4
451.164	-185.17
451.353	130.22
451.543	916.64
451.732	1293.46
451.922	-76.63
452.111	-29.52
452.301	562.34
452.49	482.47
452.68	-324.43
452.869	396.45
453.059	562.34
453.249	1010.84
453.438	-484.17
453.628	60.59
453.817	750.75
454.007	713.89
454.197	-349.01
454.386	-37.72
454.576	1133.72
454.765	1117.34
454.955	-88.92
455.145	-199.51
455.334	691.36
455.524	369.83
455.714	107.69
455.904	-160.59
456.093	1512.6
456.283	904.35
456.473	-217.94
456.663	-246.61
456.852	740.51
457.042	883.87
457.232	-252.75
457.422	474.28
457.612	863.39
457.802	1098.91
457.991	-496.46
458.181	-310.1
458.371	1016.99
458.561	804
458.751	-115.54
458.941	-291.66
459.131	556.19
459.321	457.89
459.511	5.29
459.701	-131.92
459.891	828.57
460.081	326.82
460.271	-185.17
460.461	-308.05
460.651	1424.53
460.841	1148.06
461.032	-197.46
461.222	-406.35
461.412	617.63
461.602	1375.38
461.792	-492.37
461.983	-432.97
462.173	728.22
462.363	1322.13
462.554	-254.8
462.744	-295.76
462.934	873.63
463.125	834.72
463.315	-512.85
463.505	-187.22
463.696	781.47
463.886	322.73
464.077	-398.16
464.267	-355.15
464.458	1084.57
464.648	302.25
464.839	-68.44
465.03	-256.85
465.22	294.05
465.411	781.47
465.601	-381.78
465.792	-340.82
465.983	447.65
466.174	736.42
466.364	-578.38
466.555	-314.19
466.746	824.48
466.937	466.08
467.128	-322.38
467.319	-371.54
467.51	937.12
467.701	1510.55
467.891	-340.82
468.082	-488.27
468.274	654.5
468.465	-52.05
468.656	-168.79
468.847	-463.69
469.038	126.12
469.229	453.8
469.42	-242.51
469.612	-492.37
469.803	840.86
469.994	691.36
470.185	-273.23
470.377	-465.74
470.568	498.85
470.76	644.26
470.951	-439.12
471.142	-164.69
471.334	801.95
471.526	650.4
471.717	-197.46
471.909	-627.53
472.1	455.84
472.292	601.25
472.484	-494.41
472.675	-480.08
472.867	580.77
473.059	998.56
473.251	-435.02
473.443	-428.88
473.635	502.95
473.826	715.94
474.018	-502.61
474.21	-240.47
474.402	537.76
474.595	926.88
474.787	-381.78
474.979	-162.64
475.171	351.4
475.363	97.45
475.555	-652.11
475.748	-447.31
475.94	758.94
476.132	337.06
476.325	-471.89
476.517	76.97
476.71	1236.12
476.902	314.53
477.095	-512.85
477.287	-172.88
477.48	679.07
477.673	568.48
477.865	-306
478.058	-430.93
478.251	687.26
478.444	943.26
478.636	-365.39
478.829	-539.47
479.022	634.02
479.215	720.03
479.408	-226.13
479.601	64.68
479.794	195.75
479.988	298.15
480.181	-90.96
480.374	-424.78
480.567	642.21
480.76	1094.81
480.954	-381.78
481.147	-662.35
481.341	502.95
481.534	382.12
481.728	-197.46
481.921	-62.29
482.115	726.18
482.308	961.69
482.502	-484.17
482.696	-312.14
482.89	1307.8
483.084	666.78
483.277	-355.15
483.471	-197.46
483.665	955.55
483.859	1647.76
484.053	-748.36
484.247	-586.57
484.442	593.06
484.636	601.25
484.83	-443.21
485.024	-267.09
485.219	472.23
485.413	302.25
485.608	-484.17
485.802	-176.98
485.997	1045.66
486.191	554.15
486.386	-484.17
486.58	-217.94
486.775	715.94
486.97	1019.04
487.165	-338.77
487.36	-371.54
487.555	605.35
487.75	468.13
487.945	-166.74
488.14	-510.8
488.335	265.38
488.53	474.28
488.725	-336.72
488.92	-256.85
489.116	1074.33
489.311	646.3
489.507	-455.5
489.702	177.32
489.898	1117.34
490.093	234.66
490.289	72.87
490.485	-207.7
490.68	177.32
490.876	1105.05
491.072	-459.6
491.268	-287.57
491.464	996.51
491.66	742.56
491.856	-189.27
492.052	119.98
492.248	851.1
492.445	724.13
492.641	-439.12
492.837	-289.62
493.034	1002.65
493.23	1146.01
493.427	146.6
493.623	-262.99
493.82	904.35
494.017	1262.74
494.214	-316.24
494.41	-381.78
494.607	855.2
494.804	457.89
495.001	-101.2
495.198	-95.06
495.395	928.92
495.593	986.27
495.79	-256.85
495.987	-381.78
496.184	175.27
496.382	908.44
496.579	-357.2
496.777	-119.64
496.974	1469.59
497.172	916.64
497.37	-213.84
497.568	-367.44
497.766	1600.66
497.963	808.09
498.161	-287.57
498.359	52.39
498.558	1272.98
498.756	1141.91
498.954	-328.53
499.152	283.81
499.351	1133.72
499.549	1076.38
499.747	-148.31
499.946	-29.52
500.145	703.65
500.343	855.2
500.542	-90.96
500.741	-17.24
500.94	1094.81
501.139	1215.64
501.338	-78.68
501.537	208.04
501.736	1531.03
501.935	1129.63
502.134	-205.65
502.334	-140.12
502.533	1365.14
502.733	1129.63
502.932	52.39
503.132	72.87
503.331	941.21
503.531	1281.18
503.731	19.63
503.931	48.3
504.131	777.37
504.331	1359
504.531	-11.09
504.731	130.22
504.931	1006.75
505.132	1076.38
505.332	66.73
505.532	3.24
505.733	1268.89
505.933	1653.91
506.134	261.29
506.335	-15.19
506.536	824.48
506.736	1469.59
506.937	42.15
507.138	-117.59
507.34	1950.86
507.541	1277.08
507.742	433.32
507.943	-0.85
508.145	1209.5
508.346	697.5
508.548	-133.97
508.749	93.35
508.951	668.83
509.153	904.35
509.354	300.2
509.556	292.01
509.758	1395.86
509.96	707.74
510.163	502.95
510.365	281.77
510.567	892.06
510.769	1059.99
510.972	74.92
511.174	511.14
511.377	781.47
511.58	2069.64
511.782	64.68
511.985	300.2
512.188	1764.5
512.391	1367.19
512.594	101.55
512.797	378.02
513.001	1569.94
513.204	1733.78
513.407	427.17
513.611	232.62
513.814	1420.44
514.018	1617.04
514.222	480.42
514.425	392.36
514.629	1473.68
514.833	1354.9
515.037	502.95
515.241	201.9
515.445	1066.14
515.65	953.5
515.854	396.45
516.059	396.45
516.263	1453.2
516.468	1391.77
516.672	380.07
516.877	322.73
517.082	867.49
517.287	1479.83
517.492	666.78
517.697	392.36
517.902	1436.82
518.107	1160.34
518.313	507.04
518.518	353.45
518.724	1946.76
518.929	1371.29
519.135	617.63
519.341	152.74
519.547	1445.01
519.753	1551.51
519.959	371.88
520.165	449.7
520.371	1649.81
520.577	2100.36
520.784	261.29
520.99	613.54
521.197	1518.74
521.404	1391.77
521.61	165.03
521.817	322.73
522.024	1854.61
522.231	1277.08
522.438	38.06
522.645	928.92
522.853	1166.49
523.06	1645.71
523.268	556.19
523.475	486.56
523.683	1528.98
523.891	1592.47
524.098	150.7
524.306	498.85
524.514	1430.68
524.722	1186.97
524.931	625.83
525.139	490.66
525.347	949.4
525.556	1473.68
525.764	576.67
525.973	822.43
526.182	1582.23
526.391	1326.23
526.6	476.32
526.809	705.7
527.018	1455.25
527.227	1703.06
527.436	593.06
527.646	478.37
527.855	1725.58
528.065	1510.55
528.275	523.43
528.484	390.31
528.694	1715.34
528.904	1641.62
529.114	486.56
529.325	609.44
529.535	1078.43
529.745	1635.47
529.956	494.76
530.166	511.14
530.377	1393.81
530.588	2036.88
530.799	763.04
531.01	591.01
531.221	1905.81
531.432	1924.24
531.643	726.18
531.855	1150.11
532.066	1995.92
532.278	1576.08
532.489	597.15
532.701	470.18
532.913	1961.1
533.125	1612.95
533.337	392.36
533.549	427.17
533.762	1854.61
533.974	1309.85
534.186	347.3
534.399	668.83
534.612	1936.53
534.825	1416.34
535.037	711.84
535.25	691.36
535.464	1350.81
535.677	1969.29
535.89	523.43
536.104	797.85
536.317	1526.93
536.531	1561.75
536.744	875.68
536.958	748.7
537.172	1670.29
537.386	1469.59
537.6	752.8
537.815	677.02
538.029	1830.03
538.244	2083.98
538.458	591.01
538.673	646.3
538.888	1928.33
539.103	2069.64
539.318	986.27
539.533	560.29
539.748	1574.03
539.963	1399.96
540.179	519.33
540.394	433.32
540.61	1150.11
540.826	1555.6
541.042	642.21
541.258	576.67
541.474	2139.27
541.69	1510.55
541.906	738.46
542.123	625.83
542.339	1780.88
542.556	1414.29
542.773	707.74
542.99	814.24
543.207	1461.4
543.424	1428.63
543.641	924.83
543.858	1117.34
544.076	1494.16
544.293	1383.57
544.511	525.47
544.729	683.17
544.947	1479.83
545.165	1608.85
545.383	658.59
545.601	715.94
545.819	1727.63
546.038	1701.01
546.256	851.1
546.475	648.35
546.694	2569.35
546.913	2012.3
547.132	1289.37
547.351	797.85
547.57	1412.25
547.79	1438.87
548.009	726.18
548.229	679.07
548.449	1440.92
548.668	2002.06
548.888	900.25
549.109	732.32
549.329	2018.44
549.549	2213
549.77	973.98
549.99	1037.47
550.211	2116.75
550.432	2329.74
550.653	666.78
550.874	939.16
551.095	2571.4
551.316	1684.62
551.538	779.42
551.759	924.83
551.981	1817.74
552.203	1922.19
552.424	830.62
552.646	1139.87
552.869	1707.15
553.091	1768.59
553.313	1184.92
553.536	1059.99
553.758	2178.19
553.981	1711.25
554.204	898.2
554.427	996.51
554.65	2149.51
554.873	1445.01
555.097	631.97
555.32	1068.19
555.544	2276.49
555.768	2010.25
555.992	847.01
556.216	808.09
556.44	1711.25
556.664	2182.28
556.888	1436.82
557.113	642.21
557.337	2641.03
557.562	2430.09
557.787	847.01
558.012	1057.95
558.237	1973.39
558.462	1825.93
558.688	1244.31
558.913	1148.06
559.139	1545.36
559.365	2256.01
559.591	1043.61
559.817	1211.54
560.043	2327.69
560.269	2516.1
560.496	1387.67
560.722	1131.67
560.949	2612.35
561.176	1551.51
561.403	1029.27
561.63	1211.54
561.857	1664.15
562.084	1838.22
562.312	1074.33
562.539	1260.7
562.767	2600.07
562.995	1961.1
563.223	1111.19
563.451	1363.09
563.679	2061.45
563.908	2129.03
564.136	1277.08
564.365	1340.57
564.594	1678.48
564.823	3353.72
565.052	1477.78
565.281	1133.72
565.51	2350.21
565.74	2002.06
565.969	1064.09
566.199	1467.54
566.429	2432.13
566.659	2403.46
566.889	1207.45
567.119	1307.8
567.35	2800.77
567.58	2735.23
567.811	1469.59
568.042	1402.01
568.273	2215.05
568.504	2538.63
568.735	1465.49
568.966	1588.37
569.198	2376.84
569.43	2755.71
569.661	1686.67
569.893	1914
570.125	3005.56
570.358	2884.73
570.59	1475.73
570.822	1512.6
571.055	2833.54
571.288	2765.95
571.521	1485.97
571.754	1576.08
571.987	2972.8
572.22	2677.89
572.454	1764.5
572.687	1707.15
572.921	2258.06
573.155	2526.34
573.389	2479.24
573.623	2145.42
573.858	2686.08
574.092	2849.92
574.327	2012.3
574.561	2272.39
574.796	2614.4
575.031	3083.39
575.266	2030.73
575.502	1989.77
575.737	3259.51
575.973	2903.17
576.209	2202.76
576.445	2120.84
576.681	2837.63
576.917	3140.73
577.153	2108.55
577.39	2202.76
577.626	3218.55
577.863	3105.92
578.1	2016.4
578.337	2532.48
578.574	3083.39
578.812	3576.95
579.049	2651.27
579.287	2280.58
579.525	3617.91
579.763	3560.56
580.001	2251.91
580.239	2516.1
580.478	3984.49
580.716	3574.9
580.955	2837.63
581.194	2845.82
581.433	3929.2
581.672	3529.84
581.911	2821.25
582.151	2681.99
582.39	3722.35
582.63	4289.64
582.87	2833.54
583.11	3001.47
583.35	3329.14
583.591	4033.65
583.831	3331.19
584.072	3484.79
584.313	4336.74
584.554	4138.09
584.795	3574.9
585.036	3523.7
585.277	5008.48
585.519	4844.64
585.761	3216.51
586.003	3484.79
586.245	4828.26
586.487	5151.84
586.729	4050.03
586.972	3812.46
587.215	5751.89
587.457	4568.16
587.7	4150.38
587.944	4033.65
588.187	4908.13
588.43	4863.07
588.674	4250.73
588.918	4127.85
589.162	5712.98
589.406	4934.75
589.65	4174.95
589.894	5049.44
590.139	5905.49
590.384	5811.28
590.629	4527.21
590.874	4787.3
591.119	5461.08
591.364	6036.56
591.61	4797.54
591.855	4869.22
592.101	6667.33
592.347	6343.75
592.593	5131.36
592.84	5663.83
593.086	6874.18
593.333	5946.45
593.58	5385.3
593.827	5389.4
594.074	6415.43
594.321	6388.81
594.568	5614.68
594.816	5614.68
595.064	6812.74
595.312	6913.09
595.56	5891.15
595.808	6329.42
596.057	7287.87
596.305	7138.37
596.554	6081.61
596.803	6548.55
597.052	7711.8
597.301	8088.62
597.551	6214.73
597.8	7013.44
598.05	7969.84
598.3	7826.48
598.55	6622.28
598.8	6759.49
599.051	7515.19
599.301	8006.7
599.552	6796.35
599.803	7584.82
600.054	8242.22
600.305	8680.49
600.556	7676.98
600.808	7638.07
601.06	8490.03
601.312	8838.18
601.564	8049.71
601.816	7406.65
602.068	9413.66
602.321	9194.53
602.574	8330.28
602.827	7654.45
603.08	8975.39
603.333	9452.57
603.587	8297.52
603.84	8383.53
604.094	9683.99
604.348	9374.75
604.602	8289.32
604.856	8680.49
605.111	9876.5
605.365	9784.34
605.62	8895.52
605.875	8825.89
606.13	9946.13
606.386	10171.41
606.641	9112.61
606.897	9040.93
607.153	10144.78
607.409	10712.07
607.665	9069.6
607.921	9237.53
608.178	10398.73
608.435	10742.79
608.692	9567.26
608.949	9917.46
609.206	11037.7
609.463	11072.51
609.721	10103.82
609.979	10484.75
610.237	11156.48
610.495	11609.08
610.753	10544.14
611.012	10689.54
611.27	11748.34
611.529	11699.19
611.788	10527.75
612.047	10497.03
612.307	11439.1
612.566	11899.89
612.826	10742.79
613.086	10824.71
613.346	11447.29
613.606	11987.96
613.867	10900.48
614.127	11222.02
614.388	11512.83
614.649	12137.46
614.91	10990.59
615.172	11449.34
615.433	11885.56
615.695	12246
615.957	11611.13
616.219	11254.78
616.481	12647.4
616.743	12311.53
617.006	11088.9
617.269	11750.39
617.532	12815.34
617.795	12411.89
618.058	11701.24
618.322	11688.95
618.586	12930.02
618.849	12366.83
619.114	11879.41
619.378	11445.24
619.642	12559.34
619.907	13106.15
620.172	11711.48
620.437	11865.08
620.702	12962.79
620.967	12665.83
621.233	11627.51
621.499	11766.78
621.765	12790.76
622.031	13112.29
622.297	11621.37
622.564	11914.23
622.83	12880.87
623.097	13546.46
623.364	11930.61
623.631	12131.31
623.899	13294.56
624.166	13143.01
624.434	11703.29
624.702	11803.64
624.97	13132.77
625.239	12700.65
625.507	12059.63
625.776	12323.82
626.045	12608.49
626.314	13186.02
626.584	12196.85
626.853	11953.14
627.123	12854.25
627.393	12420.08
627.663	11836.41
627.933	11940.85
628.204	12938.21
628.474	13100
628.745	11791.35
629.016	12243.95
629.287	12792.81
629.559	12504.04
629.83	11756.54
630.102	11695.1
630.374	12463.08
630.646	13439.97
630.919	11772.92
631.191	11908.08
631.464	12723.18
631.737	12295.15
632.01	11342.85
632.284	11602.94
632.557	12798.95
632.831	12620.78
633.105	11795.45
633.379	11516.92
633.654	11928.56
633.928	12835.81
634.203	11525.11
634.478	11168.77
634.753	12475.37
635.028	12608.49
635.304	11463.68
635.58	11174.91
635.856	12080.11
636.132	12159.99
636.408	11316.22
636.685	11318.27
636.961	12139.51
637.238	12151.79
637.515	11219.97
637.793	11002.88
638.07	12534.76
638.348	11912.18
638.626	11187.2
638.904	11242.5
639.182	11426.81
639.461	11250.69
639.74	11133.95
640.019	11193.34
640.298	11084.8
640.577	11688.95
640.857	10636.3
641.136	10605.58
641.416	11381.76
641.696	12039.15
641.977	10771.46
642.257	10800.13
642.538	11283.45
642.819	11930.61
643.1	10419.21
643.382	9995.28
643.663	11623.42
643.945	11353.09
644.227	10411.02
644.509	9964.56
644.792	11815.93
645.074	11217.92
645.357	9802.77
645.64	9948.18
645.923	10918.92
646.207	11058.18
646.49	9806.87
646.774	9800.73
647.058	10947.59
647.342	11080.71
647.627	9440.28
647.911	9436.19
648.196	10886.15
648.481	10935.3
648.767	9477.15
649.052	9487.39
649.338	10474.51
649.624	10095.63
649.91	9393.18
650.196	9327.64
650.483	10615.82
650.77	10728.45
651.057	9464.86
651.344	9464.86
651.631	10312.72
651.919	10064.91
652.207	9231.39
652.495	9473.05
652.783	10091.54
653.071	10013.71
653.36	8664.1
653.649	9065.5
653.938	9970.71
654.227	9937.94
654.517	8981.54
654.806	8600.62
655.096	9350.17
655.387	10042.39
655.677	8752.17
655.968	8451.11
656.258	9208.86
656.549	9935.89
656.841	8707.11
657.132	8485.93
657.424	9114.66
657.716	9397.28
658.008	8227.89
658.3	7949.36
658.592	9210.91
658.885	9489.43
659.178	8236.08
659.471	7703.61
659.765	8465.45
660.058	9051.17
660.352	7689.27
660.646	7935.03
660.94	9432.09
661.235	9055.26
661.53	8135.73
661.824	7263.29
662.12	8690.73
662.415	8391.72
662.711	7728.18
663.006	7709.75
663.302	8346.67
663.599	7986.22
663.895	7193.66
664.192	7711.8
664.489	8752.17
664.786	8440.87
665.083	7107.65
665.381	7156.8
665.678	8064.05
665.976	8172.59
666.275	6941.76
666.573	7212.09
666.872	7756.85
667.171	7955.51
667.47	6612.04
667.769	6693.96
668.069	8014.9
668.368	7883.83
668.668	6536.26
668.969	6556.74
669.269	7629.88
669.57	7275.58
669.871	6405.19
670.172	6483.02
670.473	7654.45
670.775	7627.83
671.077	6503.5
671.379	6417.48
671.681	7502.9
671.983	7459.9
672.286	6159.44
672.589	6265.93
672.892	7337.02
673.196	7210.04
673.499	5950.54
673.803	6196.3
674.107	7363.64
674.411	6997.06
674.716	6040.65
675.021	6011.98
675.326	6640.71
675.631	7355.45
675.936	5499.99
676.242	5712.98
676.548	6376.52
676.854	7255.1
677.16	5401.69
677.467	5729.36
677.774	6765.64
678.081	6253.64
678.388	5837.91
678.696	5680.21
679.004	6650.95
679.312	6863.94
679.62	5516.37
679.928	5377.11
680.237	6636.61
680.546	5553.24
680.855	5459.03
681.164	5082.21
681.474	6300.75
681.784	6214.73
682.094	5203.04
682.404	4897.89
682.715	6659.14
683.026	5307.48
683.337	4942.94
683.648	5264.47
683.959	6515.78
684.271	6147.15
684.583	4885.6
684.895	4547.69
685.208	5975.12
685.52	6020.17
685.833	4869.22
686.146	4664.42
686.46	6120.53
686.773	5794.9
687.087	4738.15
687.401	4492.39
687.716	5598.29
688.03	5477.46
688.345	4189.29
688.66	4672.61
688.975	5538.9
689.291	5540.95
689.607	4846.69
689.923	4328.55
690.239	5280.86
690.555	5520.47
690.872	4258.92
691.189	3912.81
691.506	5389.4
691.824	5553.24
692.142	4017.26
692.459	4142.19
692.778	4772.96
693.096	5411.93
693.415	4389.99
693.734	4172.91
694.053	4899.94
694.372	4271.21
694.692	3648.63
695.012	3925.1
695.332	4639.84
695.652	4648.04
695.973	3841.14
696.294	3898.48
696.615	4461.67
696.936	5121.12
697.258	3351.67
697.579	3542.13
697.902	4265.07
698.224	4164.72
698.546	3562.61
698.869	3460.21
699.192	4400.23
699.516	4820.07
699.839	3435.64
700.163	3615.86
700.487	3984.49
700.811	5016.67
701.136	2978.94
701.461	3435.64
701.786	4476.01
702.111	4955.23
702.436	2987.13
702.762	3249.27
703.088	4527.21
703.415	4887.65
703.741	3290.23
704.068	3042.43
704.395	4060.27
704.722	4295.79
705.05	3044.48
705.377	2989.18
705.705	4172.91
706.034	3882.1
706.362	2755.71
706.691	2768
707.02	4134
707.349	4109.42
707.679	3144.83
708.009	2559.11
708.339	3697.78
708.669	3730.55
709	2882.69
709.33	2638.98
709.661	3841.14
709.993	3636.34
710.324	2911.36
710.656	2532.48
710.988	3794.03
711.321	4025.45
711.653	2235.53
711.986	2755.71
712.319	2976.89
712.652	3751.03
712.986	2882.69
713.32	2530.44
713.654	3947.63
713.988	3896.43
714.323	2487.43
714.658	2512
714.993	3372.15
715.328	3257.46
715.664	2473.09
716	2544.77
716.336	3933.29
716.673	3216.51
717.009	2403.46
717.346	2329.74
717.683	3849.33
718.021	3218.55
718.359	2124.94
718.697	2296.97
719.035	3101.82
719.373	3046.52
719.712	2532.48
720.051	1957
720.39	3417.21
720.73	3091.58
721.07	2075.79
721.41	2077.83
721.75	3433.59
722.091	3267.7
722.432	2065.55
722.773	2299.02
723.114	3064.96
723.456	2989.18
723.798	1905.81
724.14	2086.03
724.482	2684.03
724.825	3052.67
725.168	2227.34
725.511	1977.48
725.855	2821.25
726.198	2679.94
726.542	1690.77
726.887	2235.53
727.231	3208.31
727.576	2473.09
727.921	1836.17
728.266	1580.18
728.612	2804.86
728.958	3034.24
729.304	1614.99
729.651	2149.51
729.997	2618.5
730.344	2595.97
730.691	1600.66
731.039	1930.38
731.387	2641.03
731.735	2319.5
732.083	1721.49
732.431	1787.02
732.78	2403.46
733.129	1922.19
733.479	1434.77
733.828	1684.62
734.178	2464.9
734.528	2010.25
734.879	1658
735.23	1574.03
735.581	2538.63
735.932	2452.61
736.283	1455.25
736.635	1440.92
736.987	2876.54
737.34	2811.01
737.692	1256.6
738.045	1275.03
738.398	2489.48
738.752	2577.54
739.105	1191.06
739.459	1778.83
739.814	2665.6
740.168	2667.65
740.523	1342.61
740.878	1578.13
741.233	2362.5
741.589	2583.68
741.945	1479.83
742.301	1412.25
742.657	2665.6
743.014	2202.76
743.371	1315.99
743.728	1858.7
744.086	2192.52
744.444	1920.14
744.802	1158.3
745.16	1266.84
745.519	2317.45
745.878	1967.24
746.237	1027.23
746.597	1264.79
746.956	2538.63
747.316	2014.35
747.677	900.25
748.037	1229.98
748.398	1932.43
748.759	2174.09
749.121	1234.07
749.482	1301.65
749.844	1682.58
750.207	1606.8
750.569	634.02
750.932	1045.66
751.295	2575.49
751.659	2038.92
752.022	865.44
752.386	1449.11
752.751	1848.46
753.115	1553.55
753.48	1012.89
753.845	996.51
754.21	1946.76
754.576	1791.12
754.942	781.47
755.308	1135.77
755.675	1574.03
756.041	2219.14
756.409	629.92
756.776	1021.08
757.144	2487.43
757.511	2079.88
757.88	928.92
758.248	548
758.617	1182.87
758.986	1748.11
759.355	1006.75
759.725	1014.94
760.095	1363.09
760.465	2086.03
760.836	619.68
761.206	697.5
761.577	2008.2
761.949	1320.09
762.32	879.77
762.692	509.09
763.065	1578.13
763.437	1346.71
763.81	566.43
764.183	767.13
764.556	2051.21
764.93	1563.79
765.304	1033.37
765.678	937.12
766.053	1563.79
766.428	1748.11
766.803	427.17
767.178	562.34
767.554	961.69
767.93	1330.33
768.306	529.57
768.683	382.12
769.06	1793.17
769.437	1461.4
769.814	355.49
770.192	316.58
770.57	1350.81
770.948	2178.19
771.327	619.68
771.706	414.88
772.085	1664.15
772.464	1969.29
772.844	545.95
773.224	273.57
773.605	955.55
773.985	1275.03
774.366	640.16
774.748	767.13
775.129	1721.49
775.511	1590.42
775.893	382.12
776.276	574.63
776.658	1813.65
777.041	1436.82
777.425	216.23
777.808	396.45
778.192	1209.5
778.576	1735.82
778.961	60.59
779.346	335.01
779.731	1481.88
780.116	801.95
780.502	398.5
780.888	353.45
781.274	1191.06
781.661	984.22
782.048	60.59
782.435	138.41
782.823	1074.33
783.21	1240.22
783.598	148.65
783.987	365.73
784.376	1682.58
784.765	949.4
785.154	423.08
785.544	128.17
785.933	1477.78
786.324	1004.7
786.714	435.36
787.105	40.11
787.496	1193.11
787.888	875.68
788.279	-58.2
788.671	142.5
789.064	1027.23
789.456	1266.84
789.849	-19.29
790.242	-13.14
790.636	814.24
791.03	1250.46
791.424	-29.52
791.818	1645.71
792.213	1340.57
792.608	1111.19
793.004	437.41
793.399	-232.27
793.795	1025.18
794.192	894.11
794.588	-4.95
794.985	-228.18
795.382	1121.43
795.78	988.32
796.178	175.27
796.576	15.53
796.974	1496.21
797.373	1055.9
797.772	-144.21
798.172	-23.38
798.571	980.12
798.971	1309.85
799.372	126.12
799.772	150.7
800.173	1299.61
800.574	973.98
800.976	7.34
801.378	-213.84
801.78	621.73
802.182	535.71
802.585	87.21
802.988	-52.05
803.392	562.34
803.795	689.31
804.199	-95.06
804.604	103.59
805.008	1111.19
805.413	1496.21
805.819	62.63
806.224	-269.14
806.63	877.73
807.036	1105.05
807.443	-52.05
807.85	111.78
808.257	1014.94
808.664	898.2
809.072	347.3
809.48	130.22
809.889	1279.13
810.297	1158.3
810.706	314.53
811.116	-142.16
811.526	699.55
811.936	740.51
812.346	-201.55
812.757	-133.97
813.167	840.86
813.579	656.54
813.99	95.4
814.402	-242.51
814.814	1453.2
815.227	652.45
815.64	-289.62
816.053	-125.78
816.467	994.46
816.88	896.16
817.294	105.64
817.709	195.75
818.124	777.37
818.539	1297.56
818.954	23.72
819.37	124.07
819.786	441.51
820.202	1035.42
820.619	-545.61
821.036	-197.46
821.453	1156.25
821.871	830.62
822.289	-242.51
822.707	-308.05
823.126	957.6
823.545	474.28
823.964	-203.6
824.384	-248.66
824.804	531.62
825.224	894.11
825.645	56.49
826.065	-277.33
826.487	990.36
826.908	1035.42
827.33	-70.48
827.752	220.33
828.175	822.43
828.598	1016.99
829.021	195.75
829.444	545.95
829.868	869.53
830.292	349.35
830.717	-344.91
831.142	-299.86
831.567	486.56
831.992	668.83
832.418	273.57
832.844	-316.24
833.27	914.59
833.697	666.78
834.124	-562
834.552	-441.17
834.979	1154.2
835.408	830.62
835.836	-381.78
836.265	-166.74
836.694	504.99
837.123	808.09
837.553	-357.2
837.983	-578.38
838.413	908.44
838.844	930.97
839.275	-420.69
839.706	-39.76
840.138	1217.69
840.57	472.23
841.003	-275.28
841.435	-119.64
841.868	560.29
842.302	429.22
842.735	-72.53
843.169	-500.56
843.604	691.36
844.039	779.42
844.474	-338.77
844.909	-377.68
845.345	769.18
845.781	851.1
846.217	-367.44
846.654	-490.32
847.091	810.14
847.528	558.24
847.966	-441.17
848.404	-369.49
848.842	1268.89
849.281	-70.48
849.72	-301.9
850.16	-394.06
850.599	373.92
851.039	394.4
851.48	36.01
851.921	-308.05
852.362	709.79
852.803	998.56
853.245	-691.02
853.687	-312.14
854.129	971.93
854.572	359.59
855.015	-527.18
855.459	-512.85
855.903	205.99
856.347	842.91
856.791	-181.07
857.236	-355.15
857.681	1178.78
858.127	1371.29
858.572	-140.12
859.019	-414.54
859.465	904.35
859.912	537.76
860.359	-525.13
860.807	-471.89
861.255	351.4
861.703	863.39
862.151	-256.85
862.6	-4.95
863.05	695.46
863.499	457.89
863.949	-353.1
864.4	-658.25
864.85	1166.49
865.301	820.38
865.752	-242.51
866.204	-396.11
866.656	269.48
867.109	990.36
867.561	-389.97
868.014	-95.06
868.468	783.52
868.921	883.87
869.376	-299.86
869.83	-318.29
870.285	593.06
870.74	292.01
871.195	-381.78
871.651	-408.4
872.107	1086.62
872.564	283.81
873.021	-582.48
873.478	-512.85
873.936	795.81
874.394	736.42
874.852	-461.65
875.31	-258.9
875.769	543.91
876.229	1096.86
876.688	-136.02
877.148	-398.16
877.609	453.8
878.069	365.73
878.531	-168.79
878.992	-553.8
879.454	423.08
879.916	545.95
880.378	-373.58
880.841	-496.46
881.304	-13.14
881.768	242.85
882.232	-500.56
882.696	-283.47
883.161	244.9
883.626	519.33
884.091	-396.11
884.557	-418.64
885.023	128.17
885.489	865.44
885.956	-795.47
886.423	-549.71
886.89	81.07
887.358	599.2
887.826	-566.09
888.295	-400.21
888.763	183.46
889.233	1117.34
889.702	-387.92
890.172	-484.17
890.642	310.44
891.113	384.16
891.584	-62.29
892.055	-422.73
892.527	799.9
892.999	865.44
893.472	-529.23
893.944	-209.75
894.417	562.34
894.891	214.18
895.365	-332.62
895.839	-287.57
896.314	609.44
896.789	-226.13
897.264	-492.37
897.74	-662.35
898.216	771.23
898.692	765.09
899.169	-498.51
899.646	-594.76
900.123	617.63
900.601	1045.66
901.079	-643.92
901.558	-426.83
902.037	857.25
902.516	502.95
902.996	-660.3
903.476	-633.68
903.956	355.49
904.437	677.02
904.918	-641.87
905.399	-658.25
905.881	642.21
906.363	642.21
906.846	-668.49
907.329	-383.82
907.812	126.12
908.296	576.67
908.78	-666.44
909.264	-555.85
909.749	208.04
910.234	906.4
910.719	-648.01
911.205	-273.23
911.691	-31.57
912.178	560.29
912.665	-123.73
913.152	-602.96
913.64	234.66
914.128	558.24
914.616	-576.33
915.105	-461.65
915.594	490.66
916.084	1016.99
916.574	-355.15
917.064	-709.45
917.555	-52.05
918.046	631.97
918.537	-105.3
919.029	-922.44
919.521	302.25
920.013	949.4
920.506	-400.21
920.999	-693.07
921.493	715.94
921.987	208.04
922.481	-344.91
922.976	-486.22
923.471	294.05
923.967	535.71
924.462	-355.15
924.959	-557.9
925.455	537.76
925.952	427.17
926.449	-635.72
926.947	-549.71
927.445	412.84
927.944	351.4
928.442	-820.04
928.942	-674.64
929.441	720.03
929.941	152.74
930.442	-572.24
930.942	-682.83
931.443	748.7
931.945	38.06
932.447	-631.63
932.949	-596.81
933.451	273.57
933.954	292.01
934.458	-416.59
934.961	-672.59
935.465	138.41
935.97	171.18
936.475	-353.1
936.98	-639.82
937.486	-37.72
937.992	175.27
938.498	-586.57
939.005	-494.41
939.512	175.27
940.019	554.15
940.527	-410.45
941.035	-457.55
941.544	662.69
942.053	308.39
942.562	-299.86
943.072	-113.49
943.582	611.49
944.093	306.34
944.604	-568.14
945.115	-592.72
945.627	834.72
946.139	922.78
946.651	-617.29
947.164	-365.39
947.677	496.8
948.191	396.45
948.705	-590.67
949.219	-750.41
949.734	162.98
950.249	660.64
950.765	-514.89
951.281	-648.01
951.797	1381.53
952.314	801.95
952.831	-594.76
953.348	-813.9
953.866	601.25
954.384	281.77
954.903	-625.48
955.422	-740.17
955.941	253.09
956.461	486.56
956.981	-609.1
957.502	-451.41
958.023	486.56
958.544	441.51
959.066	-543.57
959.588	-686.92
960.11	134.31
960.633	769.18
961.156	-482.13
961.68	-553.8
962.204	685.22
962.729	44.2
963.253	-609.1
963.779	-23.38
964.304	531.62
964.83	912.54
965.357	-756.55
965.883	-500.56
966.411	445.6
966.938	568.48
967.466	-562
967.994	-801.61
968.523	136.36
969.052	957.6
969.582	-586.57
970.112	-643.92
970.642	101.55
971.173	838.81
971.704	-598.86
972.235	-355.15
972.767	543.91
973.3	474.28
973.832	-363.34
974.365	-789.32
974.899	398.5
975.433	470.18
975.967	-777.03
976.502	-328.53
977.037	390.31
977.572	822.43
978.108	-611.15
978.644	-830.28
979.181	1150.11
979.718	699.55
980.255	-1024.84
980.793	-510.8
981.331	-238.42
981.87	740.51
982.409	-547.66
982.948	-406.35
983.488	392.36
984.028	892.06
984.569	-439.12
985.11	-535.37
985.651	814.24
986.193	548
986.735	-795.47
987.278	-719.69
987.821	-52.05
988.364	318.63
988.908	-500.56
989.452	-738.12
989.997	-299.86
990.542	464.04
991.088	-641.87
991.633	-213.84
992.18	249
992.726	-142.16
993.273	-568.14
993.821	-447.31
994.369	367.78
994.917	810.14
995.465	-838.47
996.014	-820.04
996.564	656.54
997.114	52.39
997.664	-394.06
998.215	-758.6
998.766	439.46
999.317	-197.46
999.869	-463.69
1000.421	-746.31
1000.974	625.83
1001.527	588.96
1002.081	-750.41
1002.635	-320.34
1003.189	447.65
1003.744	717.98
1004.299	-858.95
1004.854	-531.28
1005.41	842.91
1005.967	255.14
1006.523	-525.13
1007.081	-494.41
1007.638	523.43
1008.196	482.47
1008.755	-734.03
1009.313	-480.08
1009.873	650.4
1010.432	68.78
1010.992	-324.43
1011.553	-459.6
1012.114	435.36
1012.675	-21.33
1013.237	-330.58
1013.799	-242.51
1014.361	500.9
1014.924	-86.87
1015.487	-779.08
1016.051	-578.38
1016.615	668.83
1017.18	394.4
1017.745	-676.68
1018.31	-250.71
1018.876	896.16
1019.442	457.89
1020.009	-492.37
1020.576	-863.05
1021.143	351.4
1021.711	654.5
1022.28	-637.77
1022.848	-623.44
1023.417	867.49
1023.987	267.43
1024.557	-639.82
1025.127	-557.9
1025.698	-95.06
1026.269	9.39
1026.841	-768.84
1027.413	-447.31
1027.985	234.66
1028.558	330.92
1029.131	-586.57
1029.705	-455.5
1030.279	371.88
1030.854	425.12
1031.429	-678.73
1032.004	-197.46
1032.58	715.94
1033.156	60.59
1033.733	-725.83
1034.31	-715.59
1034.887	619.68
1035.465	613.54
1036.043	-947.01
1036.622	-504.65
1037.201	275.62
1037.781	677.02
1038.361	-682.83
1038.941	-830.28
1039.522	453.8
1040.103	734.37
1040.685	-639.82
1041.267	-389.97
1041.85	1164.44
1042.433	584.87
1043.016	-742.22
1043.6	-582.48
1044.184	-308.05
1044.769	527.52
1045.354	-543.57
1045.939	-713.55
1046.525	330.92
1047.111	408.74
1047.698	-492.37
1048.285	-811.85
1048.873	597.15
1049.461	-70.48
1050.049	-652.11
1050.638	-666.44
1051.228	19.63
1051.817	693.41
1052.407	-680.78
1052.998	-363.34
1053.589	431.27
1054.18	693.41
1054.772	-861
1055.365	-656.2
1055.957	421.03
1056.55	187.56
1057.144	-508.75
1057.738	-680.78
1058.333	183.46
1058.927	126.12
1059.523	-570.19
1060.118	-799.56
1060.715	-41.81
1061.311	640.16
1061.908	-676.68
1062.506	-451.41
1063.103	560.29
1063.702	-45.91
1064.3	-879.43
1064.9	-768.84
1065.499	900.25
1066.099	175.27
1066.7	-654.16
1067.301	-869.19
1067.902	814.24
1068.504	652.45
1069.106	-379.73
1069.709	-365.39
1070.312	855.2
1070.915	488.61
1071.519	-684.87
1072.123	-461.65
1072.728	574.63
1073.333	201.9
1073.939	-320.34
1074.545	-605
1075.152	574.63
1075.759	187.56
1076.366	-762.7
1076.974	-377.68
1077.582	371.88
1078.191	783.52
1078.8	-512.85
1079.41	-936.78
1080.02	314.53
1080.63	396.45
1081.241	-242.51
1081.852	-916.3
1082.464	396.45
1083.076	355.49
1083.689	-643.92
1084.302	-547.66
1084.915	777.37
1085.529	466.08
1086.144	-623.44
1086.759	-568.14
1087.374	85.16
1087.99	289.96
1088.606	-668.49
1089.222	-566.09
1089.839	558.24
1090.457	341.16
1091.075	-566.09
1091.693	-914.25
1092.312	482.47
1092.931	916.64
1093.551	-676.68
1094.171	-246.61
1094.792	412.84
1095.413	117.93
1096.034	-578.38
1096.656	-676.68
1097.278	631.97
1097.901	339.11
1098.524	-619.34
1099.148	-418.64
1099.772	847.01
1100.397	386.21
1101.022	-729.93
1101.647	-578.38
1102.273	478.37
1102.899	658.59
1103.526	-1037.13
1104.153	-432.97
1104.781	638.11
1105.409	816.29
1106.038	-740.17
1106.667	-869.19
1107.296	169.13
1107.926	257.19
1108.556	-215.89
1109.187	-539.47
1109.818	314.53
1110.45	521.38
1111.082	-465.74
1111.715	-639.82
1112.348	408.74
1112.981	271.53
1113.615	-342.86
1114.25	-504.65
1114.885	167.08
1115.52	220.33
1116.156	-805.71
1116.792	-699.21
1117.428	445.6
1118.066	126.12
1118.703	-346.96
1119.341	-635.72
1119.98	654.5
1120.618	847.01
1121.258	-811.85
1121.898	-707.4
1122.538	357.54
1123.179	-78.68
1123.82	-453.45
1124.461	-512.85
1125.103	711.84
1125.746	183.46
1126.389	-471.89
1127.032	-785.23
1127.676	472.23
1128.32	834.72
1128.965	-570.19
1129.61	-475.98
1130.256	158.89
1130.902	640.16
1131.549	-635.72
1132.196	-607.05
1132.844	828.57
1133.491	709.79
1134.14	-551.76
1134.789	-551.76
1135.438	1031.32
1136.088	185.51
1136.738	-774.99
1137.389	-762.7
1138.04	556.19
1138.692	978.08
1139.344	-598.86
1139.996	-674.64
1140.649	388.26
1141.303	617.63
1141.957	-521.04
1142.611	-521.04
1143.266	408.74
1143.921	439.46
1144.577	-564.04
1145.233	-584.52
1145.89	81.07
1146.547	517.28
1147.205	-797.51
1147.863	-574.28
1148.521	392.36
1149.18	668.83
1149.84	-709.45
1150.5	-652.11
1151.16	318.63
1151.821	588.96
1152.482	-662.35
1153.144	-150.36
1153.806	416.93
1154.469	568.48
1155.132	-813.9
1155.796	-453.45
1156.46	584.87
1157.124	873.63
1157.789	-695.11
1158.455	-699.21
1159.121	378.02
1159.787	126.12
1160.454	-484.17
1161.121	-500.56
1161.789	294.05
1162.457	586.91
1163.126	-463.69
1163.795	-611.15
1164.465	375.97
1165.135	281.77
1165.806	-480.08
1166.477	-381.78
1167.148	-217.94
1167.82	470.18
1168.493	-865.1
1169.166	-463.69
1169.839	-4.95
1170.513	408.74
1171.187	-807.75
1171.862	-598.86
1172.537	232.62
1173.213	455.84
1173.889	-643.92
1174.566	-641.87
1175.243	703.65
1175.921	277.67
1176.599	-539.47
1177.278	-324.43
1177.957	60.59
1178.636	717.98
1179.316	-404.3
1179.997	-914.25
1180.678	611.49
1181.359	662.69
1182.041	-729.93
1182.723	-748.36
1183.406	617.63
1184.089	128.17
1184.773	-725.83
1185.457	-873.29
1186.142	128.17
1186.827	1375.38
1187.513	-844.62
1188.199	-199.51
1188.886	117.93
1189.573	423.08
1190.26	-578.38
1190.948	-666.44
1191.637	7.34
1192.326	216.23
1193.015	-715.59
1193.705	-774.99
1194.396	146.6
1195.087	382.12
1195.778	-443.21
1196.47	-699.21
1197.162	382.12
1197.855	531.62
1198.548	-674.64
1199.242	-885.58
1199.936	484.52
1200.631	580.77
1201.326	-922.44
1202.022	-709.45
1202.718	801.95
1203.415	478.37
1204.112	-899.91
1204.81	-551.76
1205.508	85.16
1206.206	1074.33
1206.905	-758.6
1207.605	-758.6
1208.305	236.71
1209.005	490.66
1209.706	-707.4
1210.408	-691.02
1211.11	257.19
1211.812	427.17
1212.515	-611.15
1213.218	-654.16
1213.922	273.57
1214.627	228.52
1215.331	-584.52
1216.037	-652.11
1216.743	-131.92
1217.449	500.9
1218.156	-451.41
1218.863	-439.12
1219.571	314.53
1220.279	785.57
1220.988	-832.33
1221.697	-592.72
1222.406	558.24
1223.117	60.59
1223.827	-543.57
1224.538	-654.16
1225.25	236.71
1225.962	408.74
1226.675	-918.34
1227.388	-574.28
1228.101	292.01
1228.815	97.45
1229.53	-619.34
1230.245	-451.41
1230.961	445.6
1231.677	97.45
1232.393	-664.4
1233.11	-672.59
1233.828	908.44
1234.546	449.7
1235.264	-594.76
1235.983	-355.15
1236.702	1082.52
1237.422	429.22
1238.143	-402.26
1238.864	-693.07
1239.585	625.83
1240.307	-193.36
1241.029	-811.85
1241.752	-299.86
1242.476	582.82
1243.2	795.81
1243.924	-496.46
1244.649	-562
1245.374	629.92
1246.1	877.73
1246.826	-822.09
1247.553	-549.71
1248.28	447.65
1249.008	535.71
1249.737	-815.94
1250.465	-414.54
1251.195	478.37
1251.925	748.7
1252.655	-693.07
1253.386	-332.62
1254.117	277.67
1254.849	111.78
1255.581	-705.35
1256.314	-518.99
1257.047	615.59
1257.781	525.47
1258.515	-705.35
1259.25	-209.75
1259.985	412.84
1260.721	472.23
1261.457	-451.41
1262.194	-805.71
1262.931	191.66
1263.669	744.61
1264.407	-490.32
1265.146	-770.89
1265.885	355.49
1266.625	326.82
1267.365	-576.33
1268.106	-656.2
1268.847	423.08
1269.589	124.07
1270.331	-361.3
1271.074	-471.89
1271.817	443.56
1272.561	439.46
1273.305	-301.9
1274.05	-394.06
1274.795	326.82
1275.541	396.45
1276.287	-936.78
1277.034	-791.37
1277.781	11.43
1278.529	611.49
1279.277	-920.39
1280.026	-873.29
1280.775	724.13
1281.525	-453.45
1282.275	-850.76
1283.026	-217.94
1283.777	388.26
1284.529	457.89
1285.281	-496.46
1286.034	-871.24
1286.788	720.03
1287.541	320.68
1288.296	-996.17
1289.051	-473.93
1289.806	400.55
1290.562	523.43
1291.318	-750.41
1292.075	-566.09
1292.832	717.98
1293.59	791.71
1294.349	-705.35
1295.108	-664.4
1295.867	1029.27
1296.627	543.91
1297.387	-869.19
1298.148	-463.69
1298.91	355.49
1299.672	101.55
1300.434	-658.25
1301.197	-793.42
1301.961	1381.53
1302.725	355.49
1303.489	-430.93
1304.254	-500.56
1305.02	453.8
1305.786	773.28
1306.552	-901.96
1307.319	-914.25
1308.087	834.72
1308.855	769.18
1309.624	-744.27
1310.393	-502.61
1311.162	-191.31
1311.933	627.87
1312.703	-578.38
1313.474	-439.12
1314.246	277.67
1315.018	609.44
1315.791	-299.86
1316.564	-805.71
1317.338	535.71
1318.112	335.01
1318.887	-873.29
1319.662	-547.66
1320.438	359.59
1321.214	191.66
1321.991	-498.51
1322.769	-699.21
1323.546	388.26
1324.325	27.82
1325.104	-717.64
1325.883	-471.89
1326.663	-41.81
1327.444	437.41
1328.224	-596.81
1329.006	-559.95
1329.788	431.27
1330.571	314.53
1331.354	-281.43
1332.137	-752.46
1332.921	697.5
1333.706	-60.24
1334.491	-404.3
1335.277	-518.99
1336.063	140.46
1336.849	228.52
1337.637	-693.07
1338.424	-660.3
1339.213	867.49
1340.001	867.49
1340.791	-742.22
1341.581	-359.25
1342.371	558.24
1343.162	181.42
1343.953	-615.24
1344.745	-562
1345.537	496.8
1346.33	523.43
1347.124	-717.64
1347.918	-275.28
1348.712	838.81
1349.507	507.04
1350.303	-586.57
1351.099	-514.89
1351.896	134.31
1352.693	-248.66
1353.49	-598.86
1354.289	-564.04
1355.087	556.19
1355.887	791.71
1356.686	-488.27
1357.487	-582.48
1358.288	97.45
1359.089	158.89
1359.891	-260.95
1360.693	-574.28
1361.496	-84.82
1362.3	210.09
1363.104	-729.93
1363.908	-574.28
1364.713	883.87
1365.519	885.92
1366.325	-578.38
1367.131	-861
1367.939	382.12
1368.746	849.05
1369.555	-1012.55
1370.363	-502.61
1371.173	804
1371.982	1275.03
1372.793	-725.83
1373.604	-942.92
1374.415	576.67
1375.227	838.81
1376.039	-820.04
1376.852	-658.25
1377.666	994.46
1378.48	384.16
1379.295	-682.83
1380.11	-854.86
1380.925	-109.4
1381.742	918.68
1382.558	-615.24
1383.376	-676.68
1384.193	289.96
1385.012	140.46
1385.831	-660.3
1386.65	-600.91
1387.47	169.13
1388.29	179.37
1389.111	-631.63
1389.933	-863.05
1390.755	679.07
1391.578	324.77
1392.401	-947.01
1393.225	-598.86
1394.049	806.05
1394.873	195.75
1395.699	-674.64
1396.525	-568.14
1397.351	490.66
1398.178	52.39
1399.005	-512.85
1399.833	-1041.22
1400.662	601.25
1401.491	840.86
1402.321	-709.45
1403.151	-549.71
1403.981	584.87
1404.813	715.94
1405.644	-516.94
1406.477	-717.64
1407.309	236.71
1408.143	1213.59
1408.977	-779.08
1409.811	-660.3
1410.646	1045.66
1411.482	785.57
1412.318	-586.57
1413.155	-619.34
1413.992	677.02
1414.829	-62.29
1415.668	-672.59
1416.506	-303.95
1417.346	756.9
1418.186	375.97
1419.026	-731.98
1419.867	-930.63
1420.709	652.45
1421.551	560.29
1422.393	-889.67
1423.236	-484.17
1424.08	453.8
1424.924	365.73
1425.769	-764.75
1426.614	-688.97
1427.46	519.33
1428.307	242.85
1429.154	-895.82
1430.001	-766.79
1430.849	312.49
1431.698	318.63
1432.547	-844.62
1433.397	-987.97
1434.247	601.25
1435.098	910.49
1435.949	-699.21
1436.801	-623.44
1437.653	136.36
1438.506	672.93
1439.36	-944.97
1440.214	-766.79
1441.069	603.3
1441.924	351.4
1442.78	-779.08
1443.636	-848.71
1444.493	283.81
1445.35	554.15
1446.208	-414.54
1447.067	-668.49
1447.926	410.79
1448.785	873.63
1449.645	-623.44
1450.506	-766.79
1451.367	482.47
1452.229	97.45
1453.091	-781.13
1453.954	-254.8
1454.818	257.19
1455.682	445.6
1456.546	-731.98
1457.412	-865.1
1458.277	720.03
1459.143	281.77
1460.01	-451.41
1460.878	-764.75
1461.745	449.7
1462.614	119.98
1463.483	-914.25
1464.352	-461.65
1465.223	775.33
1466.093	711.84
1466.964	-738.12
1467.836	-842.57
1468.709	726.18
1469.581	306.34
1470.455	-582.48
1471.329	-764.75
1472.203	40.11
1473.079	79.02
1473.954	-326.48
1474.831	-760.65
1475.707	85.16
1476.585	173.22
1477.463	-709.45
1478.341	-660.3
1479.22	-31.57
1480.1	476.32
1480.98	-916.3
1481.861	-795.47
1482.742	504.99
1483.624	697.5
1484.506	-430.93
1485.389	-664.4
1486.273	216.23
1487.157	277.67
1488.041	-678.73
1488.926	-869.19
1489.812	437.41
1490.699	322.73
1491.585	-707.4
1492.473	-549.71
1493.361	-185.17
1494.249	265.38
1495.139	-465.74
1496.028	-570.19
1496.919	70.83
1497.809	513.19
1498.701	-719.69
1499.593	-578.38
1500.485	314.53
1501.378	740.51
1502.272	-312.14
1503.166	-672.59
1504.061	799.9
1504.956	513.19
1505.852	-643.92
1506.749	-885.58
1507.646	535.71
1508.543	461.99
1509.442	-889.67
1510.34	-64.34
1511.24	982.17
1512.14	261.29
1513.04	-676.68
1513.941	-926.54
1514.843	1158.3
1515.745	-4.95
1516.648	-631.63
1517.551	-826.18
1518.455	-142.16
1519.359	-193.36
1520.264	-781.13
1521.17	-801.61
1522.076	101.55
1522.983	576.67
1523.89	-832.33
1524.798	-459.6
1525.706	404.64
1526.615	1373.33
1527.525	-869.19
1528.435	-680.78
1529.346	625.83
1530.257	146.6
1531.169	-478.03
1532.081	-758.6
1532.994	1072.28
1533.908	263.33
1534.822	-699.21
1535.737	-674.64
1536.652	320.68
1537.568	199.85
1538.484	-701.26
1539.401	-1018.69
1540.319	892.06
1541.237	-90.96
1542.156	-783.18
1543.075	-654.16
1543.995	965.79
1544.916	1160.34
1545.837	-836.42
1546.758	-746.31
1547.68	720.03
1548.603	611.49
1549.527	-539.47
1550.451	-807.75
1551.375	484.52
1552.3	791.71
1553.226	-965.45
1554.152	-729.93
1555.079	709.79
1556.006	347.3
1556.934	-527.18
1557.863	-551.76
1558.792	838.81
1559.722	158.89
1560.652	-527.18
1561.583	-842.57
1562.514	-13.14
1563.446	173.22
1564.379	-1008.45
1565.312	-584.52
1566.246	666.78
1567.18	380.07
1568.115	-533.33
1569.051	-756.55
1569.987	810.14
1570.924	1002.65
1571.861	-887.62
1572.799	-602.96
1573.737	527.52
1574.676	380.07
1575.616	-496.46
1576.556	-725.83
1577.497	-152.4
1578.438	199.85
1579.38	-715.59
1580.323	-557.9
1581.266	390.31
1582.21	726.18
1583.154	-797.51
1584.099	-809.8
1585.044	457.89
1585.99	720.03
1586.937	-324.43
1587.884	-656.2
1588.832	275.62
1589.78	890.01
1590.729	-750.41
1591.679	-398.16
1592.629	347.3
1593.58	541.86
1594.531	-633.68
1595.483	-590.67
1596.435	218.28
1597.388	119.98
1598.342	-349.01
1599.296	-521.04
1600.251	550.05
1601.207	779.42
1602.163	-496.46
1603.119	-750.41
1604.077	717.98
1605.034	890.01
1605.993	-496.46
1606.952	-76.63
1607.911	201.9
1608.872	339.11
1609.832	-779.08
1610.794	-926.54
1611.756	597.15
1612.718	433.32
1613.681	-308.05
1614.645	-668.49
1615.609	793.76
1616.574	212.14
1617.54	-129.88
1618.506	-668.49
1619.472	740.51
1620.44	695.46
1621.408	-174.93
1622.376	-486.22
1623.345	300.2
1624.315	699.55
1625.285	-527.18
1626.256	-549.71
1627.227	578.72
1628.199	-90.96
1629.172	-484.17
1630.145	-430.93
1631.119	519.33
1632.094	1068.19
1633.069	-508.75
1634.044	-422.73
1635.02	265.38
1635.997	715.94
1636.975	-549.71
1637.953	-820.04
1638.931	922.78
1639.911	52.39
1640.89	-772.94
1641.871	-500.56
1642.852	566.43
1643.833	513.19
1644.816	-754.51
1645.798	-887.62
1646.782	971.93
1647.766	189.61
1648.75	-693.07
1649.736	-641.87
1650.721	60.59
1651.708	392.36
1652.695	-680.78
1653.682	-543.57
1654.671	357.54
1655.66	593.06
1656.649	-686.92
1657.639	-688.97
1658.63	-50
1659.621	203.94
1660.613	-914.25
1661.605	-877.38
1662.598	232.62
1663.592	175.27
1664.586	-953.16
1665.581	-797.51
1666.576	216.23
1667.572	408.74
1668.569	-668.49
1669.566	-811.85
1670.564	605.35
1671.563	744.61
1672.562	-805.71
1673.562	-297.81
1674.562	496.8
1675.563	447.65
1676.564	-428.88
1677.566	-674.64
1678.569	984.22
1679.572	-256.85
1680.576	-545.61
1681.581	-787.27
1682.586	216.23
1683.592	531.62
1684.598	-641.87
1685.605	-494.41
1686.613	642.21
1687.621	259.24
1688.63	-439.12
1689.639	-424.78
1690.649	314.53
1691.66	371.88
1692.671	-480.08
1693.683	-754.51
1694.696	99.5
1695.709	453.8
1696.722	-723.79
1697.737	-645.96
1698.752	93.35
1699.767	486.56
1700.783	-566.09
1701.8	-467.79
1702.818	459.94
1703.836	-66.39
1704.854	-766.79
1705.873	-625.48
1706.893	183.46
1707.914	392.36
1708.935	-643.92
1709.956	-654.16
1710.979	292.01
1712.002	308.39
1713.025	-652.11
1714.049	-592.72
1715.074	601.25
1716.099	533.67
1717.125	-781.13
1718.152	-693.07
1719.179	76.97
1720.207	634.02
1721.235	-76.63
1722.265	-219.99
1723.294	371.88
1724.325	232.62
1725.355	-406.35
1726.387	-533.33
1727.419	359.59
1728.452	588.96
1729.485	-435.02
1730.519	-752.46
1731.554	72.87
1732.589	388.26
1733.625	-766.79
1734.662	-541.52
1735.699	3.24
1736.736	662.69
1737.775	-785.23
1738.814	-684.87
1739.853	152.74
1740.894	195.75
1741.934	-506.7
1742.976	-668.49
1744.018	531.62
1745.061	304.29
1746.104	-635.72
1747.148	-822.09
1748.193	388.26
1749.238	396.45
1750.284	-631.63
1751.33	-721.74
1752.377	466.08
1753.425	1092.76
1754.473	-545.61
1755.522	-566.09
1756.572	769.18
1757.622	617.63
1758.673	-738.12
1759.724	-621.39
1760.776	699.55
1761.829	758.94
1762.882	-414.54
1763.936	-633.68
1764.991	89.26
1766.046	1076.38
1767.102	-445.26
1768.158	-832.33
1769.215	474.28
1770.273	588.96
1771.331	-564.04
1772.39	-772.94
1773.45	418.98
1774.51	572.58
1775.571	-766.79
1776.632	-111.44
1777.694	171.18
1778.757	482.47
1779.82	-455.5
1780.884	-512.85
1781.949	255.14
1783.014	453.8
1784.08	-848.71
1785.147	-602.96
1786.214	226.47
1787.282	160.94
1788.35	-420.69
1789.419	-414.54
1790.489	748.7
1791.559	445.6
1792.63	-734.03
1793.702	-371.54
1794.774	306.34
1795.847	550.05
1796.92	-404.3
1797.994	-443.21
1799.069	494.76
1800.144	1213.59
1801.22	-740.17
1802.297	-361.3
1803.374	-86.87
1804.452	435.36
1805.531	-713.55
1806.61	-408.4
1807.69	621.73
1808.77	-66.39
1809.851	-469.84
1810.933	-848.71
1812.015	728.22
1813.098	44.2
1814.182	-625.48
1815.266	-533.33
1816.351	355.49
1817.437	398.5
1818.523	-557.9
1819.61	-521.04
1820.697	351.4
1821.785	1096.86
1822.874	-545.61
1823.963	-713.55
1825.053	285.86
1826.144	605.35
1827.235	-568.14
1828.327	-639.82
1829.42	404.64
1830.513	-121.68
1831.607	-893.77
1832.701	-631.63
1833.796	261.29
1834.892	736.42
1835.989	-881.48
1837.086	-717.64
1838.183	396.45
1839.282	298.15
1840.381	-738.12
1841.48	-623.44
1842.581	382.12
1843.682	896.16
1844.783	-197.46
1845.885	-480.08
1846.988	654.5
1848.092	441.51
1849.196	-439.12
1850.301	-406.35
1851.406	85.16
1852.512	1086.62
1853.619	-668.49
1854.726	-633.68
1855.834	101.55
1856.943	658.59
1858.052	-734.03
1859.162	-545.61
1860.273	306.34
1861.384	754.85
1862.496	-557.9
1863.608	-774.99
1864.721	470.18
1865.835	199.85
1866.95	-670.54
1868.065	-672.59
1869.181	150.7
1870.297	748.7
1871.414	-267.09
1872.532	-752.46
1873.65	275.62
1874.769	187.56
1875.889	-633.68
1877.009	-238.42
1878.13	513.19
1879.252	773.28
1880.374	-521.04
1881.497	-580.43
1882.62	343.21
1883.745	230.57
1884.87	-863.05
1885.995	-893.77
1887.121	240.81
1888.248	27.82
1889.376	-801.61
1890.504	-715.59
1891.632	472.23
1892.762	179.37
1893.892	-703.31
1895.023	-373.58
1896.154	117.93
1897.286	273.57
1898.419	-746.31
1899.552	-570.19
1900.686	558.24
1901.821	531.62
1902.956	-686.92
1904.092	-529.23
1905.229	695.46
1906.366	519.33
1907.504	-705.35
1908.643	-676.68
1909.782	535.71
