Data from FLMT021711__15__18-15-18-687.txt Node

Date: Tue Nov 05 18:15:18 CET 2024
User: Etudiants TP
Spectrometer: FLMT02171
Trigger mode: 0
Integration Time (sec): 1.000000E-1
Scans to average: 5
Electric dark correction enabled: true
Nonlinearity correction enabled: false
Boxcar width: 15
XAxis mode: Wavelengths
Number of Pixels in Spectrum: 3648
>>>>>Begin Spectral Data<<<<<
194.658	-61.02
194.923	-58.51
195.188	-50.92
195.453	-51.49
195.717	-45.41
195.982	-43.25
196.247	-42.69
196.512	-44.37
196.777	-41.96
197.042	-40.11
197.307	-39.05
197.572	-33.55
197.837	-33.05
198.101	-30.16
198.366	-27.7
198.631	-26.13
198.896	-20.56
199.161	-14.42
199.425	-7.44
199.69	2.14
199.955	1.67
200.22	-1.42
200.484	-2.51
200.749	-3.36
201.014	-1.27
201.278	-0.25
201.543	0.94
201.807	1.68
202.072	3.45
202.337	2.88
202.601	3.4
202.866	1.29
203.13	2.28
203.395	0.1
203.659	0.79
203.924	-1.98
204.189	-3.52
204.453	-1.59
204.717	0.05
204.982	1.27
205.246	2.43
205.511	4.38
205.775	2.26
206.04	7.06
206.304	7.23
206.568	8.22
206.833	7.75
207.097	10.16
207.361	12.26
207.626	15.44
207.89	17.28
208.154	17.85
208.419	18.64
208.683	19.7
208.947	22.43
209.211	21.99
209.476	22.67
209.74	23.45
210.004	22.81
210.268	24.1
210.532	26.84
210.796	24.74
211.061	25.42
211.325	25.98
211.589	24.64
211.853	26.51
212.117	27.72
212.381	28.73
212.645	28.84
212.909	28.82
213.173	25.72
213.437	25.82
213.701	25.44
213.965	27.27
214.229	22.3
214.493	22.42
214.757	21.55
215.021	22.54
215.285	25.72
215.549	27.24
215.813	24.19
216.077	22.49
216.34	24.81
216.604	25.26
216.868	25.47
217.132	25.82
217.396	24.31
217.659	23.08
217.923	19.64
218.187	20.65
218.451	18.85
218.714	15.51
218.978	17.06
219.242	19.49
219.505	19.55
219.769	19.81
220.033	18.72
220.296	21.01
220.56	22.39
220.824	20.35
221.087	21.82
221.351	21.14
221.614	20.41
221.878	21.6
222.142	20.1
222.405	19.92
222.669	22.14
222.932	18.68
223.196	15.54
223.459	11.39
223.722	11.54
223.986	10.45
224.249	10.52
224.513	10.28
224.776	10.01
225.04	9.65
225.303	9.9
225.566	10.37
225.83	13.05
226.093	15.28
226.356	12.08
226.62	10.48
226.883	13.37
227.146	14.5
227.409	12.98
227.673	11.56
227.936	10.91
228.199	11.37
228.462	8.96
228.725	8.17
228.989	8.52
229.252	9.05
229.515	15.03
229.778	13.55
230.041	12.05
230.304	8.56
230.567	10.08
230.83	6.62
231.093	10.16
231.356	11.02
231.619	18.41
231.882	17.29
232.145	19.65
232.408	17.97
232.671	16.78
232.934	17.06
233.197	15.78
233.46	14.1
233.723	16.7
233.986	14.68
234.249	12.4
234.512	16.45
234.775	20.66
235.037	19.01
235.3	19.61
235.563	20.28
235.826	22.16
236.089	24.44
236.351	24.2
236.614	25.46
236.877	25.96
237.14	28.18
237.402	27.47
237.665	20.88
237.928	21.98
238.19	20.51
238.453	23.57
238.716	22.48
238.978	23.75
239.241	21.24
239.503	24.51
239.766	18.16
240.029	16.63
240.291	21.25
240.554	22.13
240.816	21.81
241.079	21.71
241.341	20.83
241.604	19.47
241.866	15.33
242.129	16.79
242.391	19.54
242.653	17.84
242.916	17.33
243.178	17.31
243.441	17.5
243.703	16.47
243.965	13.86
244.228	14.74
244.49	14.3
244.752	15.45
245.015	15.63
245.277	16.28
245.539	14.68
245.801	17.48
246.064	16.74
246.326	15.22
246.588	15.34
246.85	16.73
247.112	17.23
247.374	20.31
247.637	21.45
247.899	21.35
248.161	22.47
248.423	17.04
248.685	17.38
248.947	16.42
249.209	16.47
249.471	17.76
249.733	18.56
249.995	16.36
250.257	15.54
250.519	14.15
250.781	18.07
251.043	15.92
251.305	16.4
251.567	17.48
251.829	18.07
252.091	17.23
252.353	13.75
252.615	13.61
252.876	11.61
253.138	10.01
253.4	7.7
253.662	9.21
253.924	10.96
254.185	12.38
254.447	13.16
254.709	12.84
254.971	15.23
255.232	16.68
255.494	14.28
255.756	12.04
256.017	13.42
256.279	13.46
256.541	12.89
256.802	12.3
257.064	14.83
257.326	13.37
257.587	14.01
257.849	15.44
258.11	19.26
258.372	19.53
258.633	19.58
258.895	18.1
259.156	16.49
259.418	15.82
259.679	12.15
259.941	10.19
260.202	13.04
260.464	14.48
260.725	14.82
260.987	13.38
261.248	12.16
261.509	11.56
261.771	10.86
262.032	12.31
262.293	11.93
262.555	12.64
262.816	11.89
263.077	9.99
263.338	6.19
263.6	6.58
263.861	6.27
264.122	4.61
264.383	7.9
264.645	8.85
264.906	7.94
265.167	7.64
265.428	6.65
265.689	8.83
265.95	7.21
266.211	8.57
266.473	8.11
266.734	4.93
266.995	0.24
267.256	1.29
267.517	3.61
267.778	7.23
268.039	8.83
268.3	7.7
268.561	5.28
268.822	7.99
269.083	6.42
269.344	5.89
269.604	6.12
269.865	6.96
270.126	2.15
270.387	3.37
270.648	3.64
270.909	2.45
271.17	0.61
271.43	-1.87
271.691	-4.78
271.952	-6.04
272.213	-4.35
272.473	-8.5
272.734	-7.25
272.995	-6.03
273.256	-6.08
273.516	-2.38
273.777	-5.35
274.038	-4.32
274.298	-6.43
274.559	-6.06
274.82	0.53
275.08	4.07
275.341	6.5
275.601	4.99
275.862	2.59
276.122	2.27
276.383	2.54
276.643	6.41
276.904	4.55
277.164	8.74
277.425	10.58
277.685	15.45
277.946	14.51
278.206	15.44
278.467	17.14
278.727	18.27
278.987	17.35
279.248	16.91
279.508	20.41
279.768	23.63
280.029	25.73
280.289	23.67
280.549	23.29
280.81	23.67
281.07	22.67
281.33	23.83
281.59	21.82
281.851	23.83
282.111	23.89
282.371	23.24
282.631	24.27
282.891	21.38
283.151	19.35
283.412	17.11
283.672	17.38
283.932	17.04
284.192	18.79
284.452	17.38
284.712	13.43
284.972	13.01
285.232	9.36
285.492	10.15
285.752	5.89
286.012	12.29
286.272	15.54
286.532	11.22
286.792	11.38
287.052	15.46
287.312	15.65
287.571	12.99
287.831	13.46
288.091	10.4
288.351	10.76
288.611	16.58
288.871	15.54
289.13	16.19
289.39	13.1
289.65	14.03
289.91	11.26
290.17	13.08
290.429	15.89
290.689	13.36
290.949	10.1
291.208	12.58
291.468	16.39
291.728	16.85
291.987	19.11
292.247	16.89
292.506	18.92
292.766	21.98
293.026	20.6
293.285	22.72
293.545	26.64
293.804	27.45
294.064	22.77
294.323	19.66
294.583	20.78
294.842	20.18
295.102	19.19
295.361	19.84
295.621	20.45
295.88	19.96
296.139	20.38
296.399	21.31
296.658	14.22
296.917	14.4
297.177	11.4
297.436	13.3
297.695	10.8
297.955	13.73
298.214	12.34
298.473	12.53
298.732	15.02
298.992	18.69
299.251	17.2
299.51	12.79
299.769	13.97
300.028	14.58
300.287	15.51
300.547	16.26
300.806	14.48
301.065	17.3
301.324	19.32
301.583	14.66
301.842	10.94
302.101	10.43
302.36	10.53
302.619	10.48
302.878	10.48
303.137	8.47
303.396	10.41
303.655	12.69
303.914	10.37
304.173	11.01
304.432	10.07
304.691	13.95
304.95	11.67
305.208	16.28
305.467	15.76
305.726	15.22
305.985	16.11
306.244	17.35
306.503	18.29
306.761	16.68
307.02	13.52
307.279	13.82
307.537	14.53
307.796	10.5
308.055	7.16
308.314	8.27
308.572	5.93
308.831	6.95
309.09	6.76
309.348	6.38
309.607	6.04
309.865	9.47
310.124	7.26
310.382	8.62
310.641	9.33
310.9	7.48
311.158	8.12
311.417	6.57
311.675	7.36
311.933	8.54
312.192	9.12
312.45	8.01
312.709	6.55
312.967	6.12
313.226	6.02
313.484	5.01
313.742	4.94
314.001	2.45
314.259	1.29
314.517	1.5
314.776	3.54
315.034	6.72
315.292	5.27
315.55	3.58
315.809	3.37
316.067	3.21
316.325	0.95
316.583	2.41
316.841	1.54
317.1	0.7
317.358	-1.88
317.616	-3.05
317.874	-4.13
318.132	-2.73
318.39	-2.67
318.648	-3.91
318.906	-3.94
319.164	-5.3
319.422	-5.68
319.68	-7.16
319.938	-6.21
320.196	-5.3
320.454	-3.12
320.712	-2.56
320.97	-1.78
321.228	-5.05
321.486	-2.67
321.744	-1.34
322.002	1.05
322.26	-0.92
322.517	-1.72
322.775	-4.53
323.033	-6.82
323.291	-4.04
323.549	-2.1
323.806	0.42
324.064	2.7
324.322	5.5
324.58	4.29
324.837	6.36
325.095	4.33
325.353	5.53
325.61	7.95
325.868	7.69
326.126	9.97
326.383	8.65
326.641	8.72
326.898	11.4
327.156	11.31
327.413	11.48
327.671	11.5
327.928	13.56
328.186	12.81
328.443	11.35
328.701	15.34
328.958	15.89
329.216	17.66
329.473	15.57
329.731	16
329.988	16.01
330.245	18.85
330.503	20.92
330.76	21.26
331.017	23.76
331.275	20.24
331.532	20.31
331.789	18.83
332.047	18.19
332.304	13.09
332.561	14.33
332.818	12.98
333.076	14.84
333.333	16.6
333.59	17.14
333.847	18.95
334.104	18.06
334.361	18.16
334.618	17.03
334.876	14.84
335.133	15.91
335.39	14.42
335.647	15.77
335.904	11.4
336.161	9.26
336.418	9.5
336.675	4.39
336.932	6.06
337.189	4.75
337.446	6.06
337.703	4.44
337.96	0.11
338.216	-0.92
338.473	-4.99
338.73	-4.88
338.987	-5.23
339.244	-0.82
339.501	-2.82
339.757	-2.98
340.014	-2.79
340.271	-0.43
340.528	-0.3
340.785	3.63
341.041	3.96
341.298	0.52
341.555	0.65
341.811	-1.25
342.068	-2.97
342.325	-2.33
342.581	1.32
342.838	3.21
343.094	2.67
343.351	2.39
343.608	-0.34
343.864	1.91
344.121	3.66
344.377	3.83
344.634	4.2
344.89	2.23
345.147	2.13
345.403	1.01
345.66	1.99
345.916	4.56
346.172	3.95
346.429	2.43
346.685	1.56
346.942	0.97
347.198	-2.75
347.454	-1.7
347.711	-0.34
347.967	-3.22
348.223	-2.5
348.48	-2.65
348.736	1.13
348.992	0.25
349.248	2.76
349.504	2.29
349.761	3.09
350.017	3.34
350.273	2.24
350.529	0.71
350.785	0.19
351.041	0.07
351.297	2.48
351.554	1.16
351.81	-0.86
352.066	-1.82
352.322	-2.25
352.578	-1.8
352.834	-2.56
353.09	-2.11
353.346	-2.49
353.602	-4.2
353.858	-5.38
354.114	-5.5
354.369	-2.72
354.625	-0.15
354.881	-1
355.137	0.85
355.393	1.01
355.649	1.1
355.905	2.82
356.16	3.51
356.416	3.28
356.672	-4.66
356.928	-3.76
357.183	-4.96
357.439	-4.87
357.695	-7.02
357.951	-3.46
358.206	-3.23
358.462	-3.32
358.718	-5.58
358.973	-4.67
359.229	-4.09
359.484	-3.05
359.74	0.95
359.996	1.48
360.251	4.91
360.507	4.52
360.762	6.12
361.018	9.21
361.273	8.65
361.529	12.47
361.784	13.2
362.04	15.24
362.295	15.58
362.55	15.75
362.806	18.89
363.061	20.18
363.316	20.3
363.572	19.93
363.827	21.01
364.082	18
364.338	18.84
364.593	19.44
364.848	19.84
365.104	18.33
365.359	20.67
365.614	22.94
365.869	20.17
366.124	18.96
366.38	17.29
366.635	19.59
366.89	21.51
367.145	20.62
367.4	24.06
367.655	22.88
367.91	23.45
368.165	21.8
368.42	18.41
368.675	18.99
368.93	17.47
369.185	13.48
369.44	12.3
369.695	13.93
369.95	12.21
370.205	9.26
370.46	6.59
370.715	4.85
370.97	4.85
371.225	4.8
371.48	7.7
371.734	8.5
371.989	8.73
372.244	7.43
372.499	9.26
372.754	7.27
373.008	5.85
373.263	1.1
373.518	2.89
373.773	1.11
374.027	0.85
374.282	3.6
374.537	4.35
374.791	5.24
375.046	4.7
375.301	3.29
375.555	1.01
375.81	1.7
376.064	2.06
376.319	7.4
376.573	5.63
376.828	2.59
377.082	8.69
377.337	5.81
377.591	2.35
377.846	1.67
378.1	5.9
378.355	7.52
378.609	6.27
378.863	2.26
379.118	3.92
379.372	1.23
379.627	-2.08
379.881	-2.6
380.135	-3.32
380.389	-4.3
380.644	-2.65
380.898	-1.22
381.152	-0.23
381.407	-0.61
381.661	2.77
381.915	4.58
382.169	4.41
382.423	1.62
382.677	-3.58
382.932	-2.99
383.186	-2.21
383.44	0.65
383.694	2.74
383.948	-0.01
384.202	-3.46
384.456	-0.88
384.71	0.95
384.964	-1.14
385.218	-0.43
385.472	1.05
385.726	1.24
385.98	0.95
386.234	0.27
386.488	-1.21
386.742	1.15
386.996	-0.91
387.249	-0.94
387.503	2.59
387.757	3.84
388.011	5.2
388.265	5.15
388.518	5.7
388.772	7.71
389.026	9.43
389.28	6.52
389.533	4.61
389.787	8.26
390.041	5.97
390.295	6.44
390.548	8.2
390.802	10.63
391.055	9.49
391.309	7.07
391.563	4.8
391.816	6.03
392.07	7.73
392.323	7.9
392.577	9.59
392.83	11.4
393.084	18.84
393.337	22.13
393.591	23.59
393.844	22.54
394.098	26.27
394.351	29.91
394.604	30.97
394.858	31.9
395.111	33.1
395.364	29.46
395.618	30.91
395.871	28.41
396.124	27.73
396.378	26.9
396.631	26.77
396.884	24.62
397.137	24.87
397.391	24.98
397.644	20.34
397.897	20.95
398.15	22.34
398.403	25.53
398.657	24.24
398.91	23.55
399.163	24.06
399.416	23.66
399.669	21.97
399.922	20.22
400.175	20.99
400.428	24.8
400.681	30.59
400.934	33
401.187	38.92
401.44	44.79
401.693	47.19
401.946	46.84
402.199	44.2
402.452	45.49
402.704	43.22
402.957	43.69
403.21	47.13
403.463	47.22
403.716	50.4
403.969	52.67
404.221	53.35
404.474	55.77
404.727	59.65
404.98	63.38
405.232	65.06
405.485	67.5
405.738	69.47
405.99	69.47
406.243	69.23
406.496	71.5
406.748	70.85
407.001	71.99
407.253	72.41
407.506	72.79
407.759	73.56
408.011	68.31
408.264	65.12
408.516	60.59
408.769	50.7
409.021	43.67
409.274	38.12
409.526	36.92
409.778	33.59
410.031	34.42
410.283	32.39
410.536	37.01
410.788	34.09
411.04	33.35
411.293	33.22
411.545	32.47
411.797	30.88
412.049	28.35
412.302	28.1
412.554	27.94
412.806	25.7
413.058	22.02
413.311	22.03
413.563	19.87
413.815	20.73
414.067	18.14
414.319	16.19
414.571	17.35
414.823	14.1
415.075	12.99
415.328	14.51
415.58	17.34
415.832	19.89
416.084	19.53
416.336	16.46
416.588	20.58
416.84	18.32
417.091	20.83
417.343	17.05
417.595	19.07
417.847	20.3
418.099	21.35
418.351	21.09
418.603	23.46
418.855	24.67
419.106	25.95
419.358	26.09
419.61	25.86
419.862	28.48
420.114	25.27
420.365	24.67
420.617	24.74
420.869	25.26
421.12	24.63
421.372	25.68
421.624	24.99
421.875	25.59
422.127	22.05
422.379	22.3
422.63	25.03
422.882	24.51
423.133	24.58
423.385	24
423.636	25.57
423.888	27.31
424.139	29.62
424.391	26.65
424.642	25.27
424.894	22.06
425.145	21.03
425.396	17.59
425.648	19.53
425.899	16.82
426.151	17.33
426.402	16.26
426.653	16.18
426.905	14.22
427.156	11.77
427.407	13.04
427.658	12.07
427.91	10.34
428.161	9.8
428.412	11.82
428.663	12.99
428.914	13.93
429.166	16.29
429.417	16.39
429.668	14.81
429.919	13.82
430.17	12.15
430.421	12.17
430.672	15.87
430.923	16.23
431.174	16.47
431.425	23.94
431.676	34.81
431.927	47.87
432.178	67.87
432.429	88.78
432.68	103.11
432.931	119.42
433.182	130.88
433.433	133.96
433.683	140.13
433.934	140.52
434.185	140.23
434.436	139.56
434.687	141.51
434.937	143.77
435.188	141.47
435.439	140
435.69	141.73
435.94	139.99
436.191	139.33
436.442	138.63
436.692	137.02
436.943	133.65
437.194	131.54
437.444	135.33
437.695	138.72
437.945	139.57
438.196	138.67
438.447	136.79
438.697	135.8
438.948	132.41
439.198	121.31
439.449	104.14
439.699	90.42
439.949	71.82
440.2	52.26
440.45	38.84
440.701	25.01
440.951	15.22
441.201	9.71
441.452	5.1
441.702	1.93
441.952	2.31
442.203	-0.26
442.453	-2.31
442.703	-2.21
442.953	-0.94
443.204	1.63
443.454	-0.93
443.704	-0.06
443.954	-3.91
444.204	-3.75
444.455	-2.62
444.705	-1.43
444.955	-1.05
445.205	-3.34
445.455	-6.47
445.705	-5.83
445.955	-6.33
446.205	-6.58
446.455	-5.84
446.705	-3.86
446.955	-2.81
447.205	-0.52
447.455	-0.7
447.705	-3.83
447.955	-6.3
448.205	-5.53
448.454	-6.56
448.704	-4.08
448.954	-5.67
449.204	-5.86
449.454	-6.6
449.704	-8.34
449.953	-7.11
450.203	-5.1
450.453	-6.65
450.703	-5.12
450.952	-7.22
451.202	-5.07
451.452	-6.25
451.701	-2.95
451.951	1.62
452.201	1.45
452.45	0.39
452.7	1.94
452.949	1.73
453.199	2.65
453.448	4.47
453.698	5.53
453.947	3.78
454.197	2.77
454.446	0.04
454.696	2.42
454.945	2.75
455.195	0.36
455.444	2.44
455.693	5.75
455.943	3.25
456.192	4.82
456.442	4.04
456.691	4.16
456.94	3.26
457.189	2.91
457.439	5.03
457.688	6.58
457.937	5.5
458.186	5.17
458.436	3.79
458.685	4.63
458.934	3.15
459.183	2.83
459.432	5.45
459.681	3.55
459.93	2.59
460.179	3.01
460.429	1.13
460.678	3.84
460.927	6.52
461.176	4.54
461.425	3
461.674	5.43
461.923	6.07
462.172	6.84
462.42	4.7
462.669	6.95
462.918	8.22
463.167	7.76
463.416	6.55
463.665	8.46
463.914	9.24
464.162	7.66
464.411	8.94
464.66	11.44
464.909	9.67
465.158	9.9
465.406	8.4
465.655	10.91
465.904	15.14
466.152	15.87
466.401	17.42
466.65	19.85
466.898	19.58
467.147	15.3
467.395	15.25
467.644	17.01
467.893	16.45
468.141	16.05
468.39	14.44
468.638	12.85
468.887	11.6
469.135	11.46
469.384	11.17
469.632	12.17
469.88	13.17
470.129	15.84
470.377	12.96
470.626	15.74
470.874	18.71
471.122	19.36
471.371	17.3
471.619	15.54
471.867	18.49
472.115	18.77
472.364	16.65
472.612	21.09
472.86	19.18
473.108	20.76
473.356	19.98
473.605	16.55
473.853	14.73
474.101	13.3
474.349	12.72
474.597	15.67
474.845	14.83
475.093	13.75
475.341	11.66
475.589	10.98
475.837	13.6
476.085	14.63
476.333	13.03
476.581	15.8
476.829	15.7
477.077	18.03
477.325	18.25
477.573	19.53
477.821	17.99
478.069	18.69
478.317	18.03
478.564	19.81
478.812	19.14
479.06	18.92
479.308	18.72
479.555	18.64
479.803	17.82
480.051	21.35
480.299	21.62
480.546	24.47
480.794	23.67
481.042	25.91
481.289	27.12
481.537	29.89
481.784	31.89
482.032	37.17
482.28	38.23
482.527	39.85
482.775	43.65
483.022	48.36
483.27	54.08
483.517	59.91
483.765	62.57
484.012	65.9
484.259	66.32
484.507	73.11
484.754	76.71
485.002	77.68
485.249	78.4
485.496	84.45
485.744	87.18
485.991	88.84
486.238	88.56
486.486	93.33
486.733	95.9
486.98	99.97
487.227	101.07
487.474	105.43
487.722	107.86
487.969	106.27
488.216	105.66
488.463	106.52
488.71	104.54
488.957	104.17
489.204	104.07
489.451	103.49
489.699	101.93
489.946	98.05
490.193	98.65
490.44	95.65
490.687	93.87
490.934	89.2
491.18	82.65
491.427	80.68
491.674	81.52
491.921	79.92
492.168	76.6
492.415	71.13
492.662	71.84
492.909	73.36
493.155	69.48
493.402	65.96
493.649	63.05
493.896	62.41
494.142	56.13
494.389	54.65
494.636	52.33
494.883	49.32
495.129	44.58
495.376	40.57
495.623	41.57
495.869	42.42
496.116	43
496.362	42.82
496.609	45.83
496.855	48.6
497.102	46.69
497.348	43.59
497.595	45.04
497.841	47.22
498.088	45.59
498.334	43.78
498.581	41.48
498.827	41.3
499.074	41.9
499.32	42.69
499.566	44.63
499.813	43.84
500.059	41.08
500.305	38.94
500.552	36.25
500.798	33.98
501.044	36.65
501.29	35.38
501.537	30.78
501.783	34.18
502.029	35.71
502.275	32.16
502.521	29.14
502.767	30.52
503.013	32.62
503.26	28.84
503.506	24.61
503.752	24.15
503.998	21.56
504.244	21
504.49	17.77
504.736	20.04
504.982	18.77
505.228	18.87
505.474	18.64
505.72	19.27
505.966	18.56
506.211	22.02
506.457	21.55
506.703	16.66
506.949	13.96
507.195	10.79
507.441	5.71
507.686	8.37
507.932	6.8
508.178	7.58
508.424	5.99
508.669	3.97
508.915	3.11
509.161	6.38
509.406	5.51
509.652	4.85
509.898	7.47
510.143	8.52
510.389	6.64
510.634	1.46
510.88	6.14
511.125	8.39
511.371	9.02
511.616	10.84
511.862	6.7
512.107	4.21
512.353	4.21
512.598	5.58
512.844	4.27
513.089	0.95
513.335	1.34
513.58	1.07
513.825	1.11
514.071	0.72
514.316	1.39
514.561	0.95
514.806	0.02
515.052	4.73
515.297	3.89
515.542	5.41
515.787	6.88
516.033	8.07
516.278	8.03
516.523	7.18
516.768	4.82
517.013	2.93
517.258	2.96
517.503	2.29
517.748	2.6
517.993	1.57
518.238	1.83
518.483	-0.7
518.728	-2.56
518.973	-5.65
519.218	-6.77
519.463	-5.04
519.708	-7.13
519.953	-8.47
520.198	-8.89
520.443	-6.42
520.688	-3.67
520.933	-5.7
521.177	-5.7
521.422	-8.45
521.667	-5.7
521.912	-4.79
522.157	-8.18
522.401	-4.06
522.646	-5.67
522.891	-5.38
523.135	-4.88
523.38	-5.67
523.625	-6.49
523.869	-3.58
524.114	-1.33
524.358	-1.6
524.603	-0.93
524.848	-4.4
525.092	-5.33
525.337	-3.6
525.581	-0.78
525.826	1.93
526.07	2.69
526.315	5.66
526.559	5.67
526.803	3.36
527.048	5.99
527.292	8.13
527.537	7.96
527.781	8.09
528.025	4.98
528.269	6.11
528.514	6.83
528.758	5.04
529.002	5.32
529.247	7.57
529.491	5.72
529.735	12.33
529.979	11.31
530.223	13.51
530.467	11.15
530.712	8.51
530.956	7.83
531.2	9.95
531.444	7.6
531.688	9.63
531.932	9.91
532.176	11.14
532.42	13.46
532.664	16.56
532.908	15.44
533.152	14.99
533.396	15.62
533.64	15.43
533.884	14.65
534.128	16.31
534.371	19.69
534.615	21.91
534.859	23.42
535.103	23.76
535.347	25.99
535.59	29.91
535.834	29.14
536.078	34.78
536.322	40.64
536.565	47.93
536.809	51.37
537.053	61.2
537.296	65.87
537.54	76.06
537.784	85.41
538.027	101.4
538.271	114.48
538.514	126.8
538.758	140.06
539.001	150.74
539.245	162.61
539.488	175.27
539.732	190.26
539.975	202.48
540.219	214.59
540.462	225.47
540.706	237.83
540.949	248.01
541.192	258.8
541.436	274.56
541.679	291.75
541.922	308.97
542.166	323.05
542.409	342.97
542.652	365.57
542.895	387.59
543.139	405.69
543.382	425.35
543.625	438.08
543.868	449.38
544.111	458.72
544.354	463.31
544.598	465.75
544.841	467.82
545.084	465.12
545.327	462.37
545.57	456.11
545.813	452.69
546.056	445.42
546.299	437.75
546.542	432.55
546.785	427.29
547.028	420.78
547.271	410.3
547.514	401.4
547.756	390.31
547.999	382.24
548.242	374.27
548.485	362.36
548.728	354.82
548.971	340.06
549.213	328.75
549.456	312.22
549.699	295.8
549.942	275.83
550.184	254.15
550.427	231.4
550.67	212.56
550.912	190.68
551.155	176.63
551.398	161.45
551.64	147.3
551.883	136.04
552.125	125.3
552.368	116.81
552.61	106.01
552.853	99.95
553.095	91.88
553.338	84.11
553.58	79.22
553.823	72.82
554.065	70.62
554.308	61.02
554.55	54.07
554.792	47.87
555.035	44.01
555.277	41.01
555.519	38.67
555.762	33.96
556.004	33.06
556.246	27.29
556.488	26.37
556.731	19.76
556.973	19.89
557.215	15.28
557.457	15.76
557.699	15.74
557.941	12.15
558.183	10.21
558.426	12.14
558.668	7.49
558.91	7.35
559.152	6.64
559.394	6.76
559.636	8.09
559.878	8.63
560.12	8.86
560.362	8.95
560.604	8.71
560.845	7.43
561.087	6.4
561.329	7.21
561.571	3.87
561.813	4.94
562.055	4.4
562.297	5.97
562.538	6.2
562.78	8.14
563.022	5.26
563.264	5.89
563.505	6.09
563.747	6.02
563.989	4.59
564.23	4.51
564.472	1.94
564.714	5.7
564.955	4.67
565.197	0.9
565.438	2.45
565.68	6.24
565.921	3.68
566.163	4.64
566.404	4.38
566.646	6.41
566.887	7.32
567.129	7
567.37	3.62
567.612	5.41
567.853	2.75
568.094	3.79
568.336	4.97
568.577	5.49
568.818	5.75
569.06	3.15
569.301	0.33
569.542	0.67
569.783	2.15
570.025	1.49
570.266	0.95
570.507	2.33
570.748	2.43
570.989	3.27
571.23	6.16
571.472	6.03
571.713	5.19
571.954	6.02
572.195	3.2
572.436	5.97
572.677	11.3
572.918	15.62
573.159	15.86
573.4	17.84
573.641	21.28
573.882	24.66
574.123	24.22
574.364	21.7
574.604	26.79
574.845	29.27
575.086	32.84
575.327	37.96
575.568	41.13
575.809	44.24
576.049	46.56
576.29	48.59
576.531	57.6
576.771	65.6
577.012	73.88
577.253	77.65
577.494	81.01
577.734	83.94
577.975	88.56
578.215	90.35
578.456	91.71
578.697	94.04
578.937	99.43
579.178	103.82
579.418	108.25
579.659	112.84
579.899	112.87
580.14	114.3
580.38	114.99
580.62	116.55
580.861	121.81
581.101	122.43
581.342	124.18
581.582	122.6
581.822	128.11
582.063	127.86
582.303	131.37
582.543	131.72
582.783	133.91
583.024	136.64
583.264	142.49
583.504	144.91
583.744	152.03
583.984	154.88
584.224	160.59
584.465	161.79
584.705	165.17
584.945	169.18
585.185	173.52
585.425	176.93
585.665	179.9
585.905	182.13
586.145	184.56
586.385	184.74
586.625	186.81
586.865	184.56
587.105	185.21
587.345	186.56
587.585	186.67
587.824	186.52
588.064	186.22
588.304	184.06
588.544	186.28
588.784	185.87
589.024	192.68
589.263	195.52
589.503	199.99
589.743	206.77
589.982	212.15
590.222	216.45
590.462	218.03
590.701	217.44
590.941	220.41
591.181	217.61
591.42	214.81
591.66	213.77
591.899	214.84
592.139	211.15
592.378	210.42
592.618	206.37
592.857	203.15
593.097	202.47
593.336	201.53
593.576	199.89
593.815	199.28
594.055	198.8
594.294	201.8
594.533	201.56
594.773	201.82
595.012	205.16
595.251	207.35
595.491	212.97
595.73	219.92
595.969	222.34
596.208	226.06
596.447	232.18
596.687	233.78
596.926	232.52
597.165	227.09
597.404	227.96
597.643	222.82
597.882	219.77
598.121	217.25
598.36	215.32
598.599	214.88
598.838	212.41
599.077	206.03
599.316	201.68
599.555	200.25
599.794	199.15
600.033	200.39
600.272	201.34
600.511	199.35
600.75	200.84
600.989	202.25
601.228	202.69
601.466	202.2
601.705	201.46
601.944	200.84
602.183	202.17
602.422	198.81
602.66	196.35
602.899	193.03
603.138	188.42
603.376	185.54
603.615	183.87
603.854	179.38
604.092	177.44
604.331	178.8
604.569	181.81
604.808	181.31
605.047	188.04
605.285	195.06
605.524	204.86
605.762	215.07
606	231.63
606.239	255.58
606.477	284.21
606.716	320.26
606.954	375.5
607.193	447.32
607.431	542.27
607.669	659.11
607.908	794.59
608.146	938.62
608.384	1081.21
608.622	1217.19
608.861	1342.22
609.099	1459.18
609.337	1565.68
609.575	1661.49
609.813	1751.36
610.052	1830.1
610.29	1895.44
610.528	1956.33
610.766	2012.13
611.004	2062.91
611.242	2108.36
611.48	2151.62
611.718	2186.56
611.956	2220.08
612.194	2248.04
612.432	2271.2
612.67	2288.98
612.908	2303.87
613.146	2312.69
613.384	2313.56
613.621	2306.53
613.859	2294.08
614.097	2268.94
614.335	2225.31
614.573	2162.55
614.811	2075.64
615.048	1965.76
615.286	1838.24
615.524	1701.92
615.761	1562.24
615.999	1431.98
616.237	1311.99
616.474	1201.44
616.712	1101.99
616.95	1009.31
617.187	924.31
617.425	852.87
617.662	789.14
617.9	730.2
618.137	676.61
618.375	627.46
618.612	580.85
618.85	542.33
619.087	509.7
619.325	478.26
619.562	449.66
619.799	424.46
620.037	402.95
620.274	384.03
620.511	369.49
620.749	355.44
620.986	344.52
621.223	334.67
621.461	329.37
621.698	327.51
621.935	326.32
622.172	323.91
622.409	327.76
622.647	327.93
622.884	326.11
623.121	330.38
623.358	331.9
623.595	334.84
623.832	337.82
624.069	337.82
624.306	341.47
624.543	345.2
624.78	347.08
625.017	349.75
625.254	354.82
625.491	358.29
625.728	362.33
625.965	364.69
626.202	365.97
626.438	364.86
626.675	367.19
626.912	374.76
627.149	382.65
627.386	393.16
627.622	401.14
627.859	410.22
628.096	419.89
628.333	428.42
628.569	435.52
628.806	441.65
629.043	442.5
629.279	442.13
629.516	442.14
629.752	433.52
629.989	429.7
630.225	423.59
630.462	417.66
630.699	409.63
630.935	400.89
631.171	388.64
631.408	380.44
631.644	369.91
631.881	359.47
632.117	348.33
632.354	340.74
632.59	329.48
632.826	321.29
633.063	311.79
633.299	304.22
633.535	291.42
633.771	282.34
634.008	273.35
634.244	259.83
634.48	242.69
634.716	226.21
634.953	207.28
635.189	189.1
635.425	172.52
635.661	158.13
635.897	141.57
636.133	127.06
636.369	113.7
636.605	99.23
636.841	89.86
637.077	84.09
637.313	77.46
637.549	72.93
637.785	67.25
638.021	64.65
638.257	61.17
638.493	63.39
638.729	58.45
638.965	59.43
639.2	58.99
639.436	56.07
639.672	54.71
639.908	51.99
640.144	54.39
640.379	55.95
640.615	53.21
640.851	56.41
641.086	58.13
641.322	55.44
641.558	53.14
641.793	54.57
642.029	51.73
642.264	50.72
642.5	50.89
642.736	46.48
642.971	46.12
643.207	44.76
643.442	42.46
643.678	43.89
643.913	46.39
644.148	45.48
644.384	47.58
644.619	48.72
644.855	50
645.09	50.72
645.325	50.74
645.561	51.85
645.796	49.49
646.031	56.31
646.266	55.25
646.502	55.83
646.737	60.97
646.972	63.46
647.207	67.52
647.442	67.93
647.678	67.96
647.913	74.56
648.148	76.81
648.383	77.55
648.618	80.07
648.853	84.96
649.088	87.89
649.323	92.76
649.558	95.74
649.793	97.23
650.028	100.03
650.263	97.96
650.498	100.78
650.733	102.26
650.968	102
651.202	104.63
651.437	103.98
651.672	100.37
651.907	99.63
652.142	99.7
652.376	100.78
652.611	102.54
652.846	104.66
653.081	104.45
653.315	102.09
653.55	101.57
653.785	99.01
654.019	97.73
654.254	93.07
654.488	90.88
654.723	83.46
654.958	78.84
655.192	73.99
655.427	67.52
655.661	65.18
655.896	65.97
656.13	64.16
656.364	59.66
656.599	54.65
656.833	55.21
657.068	54.6
657.302	53.92
657.536	50.32
657.771	50.92
658.005	51.27
658.239	51.15
658.474	48.54
658.708	50.2
658.942	52.8
659.176	51.72
659.41	50.83
659.645	51.26
659.879	51.04
660.113	47.88
660.347	48.02
660.581	47.46
660.815	47.87
661.049	48.77
661.283	46.49
661.517	45.12
661.751	43.64
661.985	43.25
662.219	45.11
662.453	41.79
662.687	45.26
662.921	42.28
663.155	40.07
663.389	33.61
663.622	32.37
663.856	34.81
664.09	32.33
664.324	31.89
664.558	31.04
664.791	31.14
665.025	29.71
665.259	29.04
665.492	27.64
665.726	29.6
665.96	27.23
666.193	22.93
666.427	23.62
666.661	22.03
666.894	18.89
667.128	17.2
667.361	19.09
667.595	16.46
667.828	14.99
668.062	12.65
668.295	11.54
668.529	11.57
668.762	12.81
668.995	11.35
669.229	15.08
669.462	14.89
669.695	16.42
669.929	12.65
670.162	12.52
670.395	10.76
670.629	12.57
670.862	13.19
671.095	8.55
671.328	8.69
671.561	5.88
671.795	7.76
672.028	9.76
672.261	10.79
672.494	11.58
672.727	9.63
672.96	9.69
673.193	9.49
673.426	14.88
673.659	14.03
673.892	14.32
674.125	13.47
674.358	13.78
674.591	11.38
674.824	10.88
675.057	8.65
675.29	7.79
675.523	10.05
675.755	9.45
675.988	9.29
676.221	12.98
676.454	12.59
676.687	13.96
676.919	14.05
677.152	14.74
677.385	17.47
677.617	18.76
677.85	20.09
678.083	19.56
678.315	23.57
678.548	21.25
678.78	20.15
679.013	19.38
679.246	18.51
679.478	20.25
679.711	17.78
679.943	20.83
680.175	18.59
680.408	22.84
680.64	18.15
680.873	18.8
681.105	19.5
681.338	22.62
681.57	21.43
681.802	23.75
682.034	24.54
682.267	28.49
682.499	30.43
682.731	26.65
682.964	26.62
683.196	24.22
683.428	21.94
683.66	20.95
683.892	24.08
684.124	27.13
684.356	33.4
684.589	33.3
684.821	32.26
685.053	33
685.285	35.02
685.517	38.3
685.749	40.67
685.981	43.95
686.213	44.41
686.445	46.26
686.676	43.47
686.908	45.45
687.14	42.99
687.372	44.06
687.604	39.43
687.836	41.4
688.068	41.47
688.299	41.44
688.531	39.2
688.763	43.82
688.995	40.94
689.226	44.54
689.458	42.25
689.69	41.9
689.921	43.41
690.153	42.78
690.384	46.27
690.616	46.66
690.848	46.27
691.079	42.31
691.311	38.81
691.542	33.42
691.774	30.63
692.005	33.74
692.237	35.76
692.468	33.17
692.699	30.73
692.931	29.52
693.162	25.99
693.393	25.21
693.625	22.69
693.856	22.83
694.087	22.79
694.319	24.64
694.55	23.88
694.781	24.6
695.012	23.26
695.243	21.05
695.475	19.06
695.706	19.54
695.937	18.14
696.168	17.72
696.399	14.41
696.63	13.76
696.861	12.66
697.092	15.63
697.323	18.41
697.554	18.11
697.785	18.12
698.016	18.8
698.247	16.17
698.478	16.88
698.709	17.91
698.94	20.44
699.171	18.62
699.401	13.78
699.632	15.28
699.863	10.25
700.094	10.75
700.325	14.34
700.555	14.67
700.786	16.57
701.017	17.9
701.247	17.28
701.478	17.48
701.709	17.73
701.939	16.6
702.17	20.64
702.401	24.99
702.631	29.75
702.862	29.91
703.092	29.56
703.323	36.93
703.553	43.33
703.784	48.93
704.014	55.12
704.244	55.57
704.475	58.62
704.705	62.84
704.936	67.7
705.166	72.07
705.396	79.48
705.627	85.18
705.857	90.91
706.087	96.4
706.317	98.93
706.548	102.46
706.778	106.64
707.008	113.41
707.238	115.96
707.468	115.86
707.698	116.77
707.928	119.07
708.158	119.27
708.389	120.99
708.619	122.92
708.849	126.49
709.079	131.24
709.309	131.67
709.539	132.63
709.768	136
709.998	141.59
710.228	142.46
710.458	139.02
710.688	133.7
710.918	130.42
711.148	125.12
711.378	123.29
711.607	118.43
711.837	115.03
712.067	110.45
712.297	103.45
712.526	98.15
712.756	94.24
712.986	84.64
713.215	76.91
713.445	72.76
713.674	70.03
713.904	65.76
714.134	65.62
714.363	62.41
714.593	59.47
714.822	56.57
715.052	53.29
715.281	51.2
715.511	47.35
715.74	43.73
715.969	37.63
716.199	33.28
716.428	29.57
716.657	24.35
716.887	20.02
717.116	11.98
717.345	10.14
717.575	7.69
717.804	6.14
718.033	3.87
718.262	2.05
718.492	-0.45
718.721	-0.62
718.95	-2.56
719.179	-4.95
719.408	-2.74
719.637	-6.43
719.866	-8.83
720.095	-6.02
720.324	-6.26
720.553	-10.17
720.782	-11.69
721.011	-12.1
721.24	-16.51
721.469	-17.17
721.698	-17.4
721.927	-17.92
722.156	-19.72
722.385	-20.12
722.613	-16.27
722.842	-15.12
723.071	-11.54
723.3	-9.61
723.529	-9.95
723.757	-9.2
723.986	-12.16
724.215	-11.85
724.443	-11.62
724.672	-10.03
724.901	-8.39
725.129	-7.7
725.358	-3.36
725.586	-5.01
725.815	-5.83
726.043	-6.52
726.272	-7.9
726.5	-8.04
726.729	-5.2
726.957	-8.11
727.186	-10.09
727.414	-9.01
727.642	-6.11
727.871	-5.13
728.099	-6.09
728.327	-6.76
728.556	-3.79
728.784	-3.57
729.012	-4.57
729.241	-1.16
729.469	-2.4
729.697	-6.28
729.925	-5.98
730.153	-7.25
730.381	-7.71
730.61	-8.15
730.838	-11.08
731.066	-10.06
731.294	-9.04
731.522	-12.35
731.75	-15.76
731.978	-16.03
732.206	-15.91
732.434	-18.75
732.662	-15.99
732.89	-17.05
733.118	-16.2
733.346	-16.03
733.573	-15.43
733.801	-16.22
734.029	-8.43
734.257	-7.8
734.485	-4.95
734.712	-4
734.94	-6.77
735.168	-2.41
735.396	-0.61
735.623	-2.83
735.851	-1.63
736.078	2.1
736.306	2
736.534	2.08
736.761	3.05
736.989	0.04
737.216	-1.46
737.444	-3.98
737.671	-3.28
737.899	3.11
738.126	1.12
738.354	1.31
738.581	2.36
738.809	2.82
739.036	-0.43
739.263	-0.99
739.491	-3.1
739.718	-3.4
739.945	2.34
740.173	3.32
740.4	3.92
740.627	2.28
740.854	2
741.081	-0.66
741.309	-0.56
741.536	-5.27
741.763	-6.34
741.99	-3.36
742.217	-4.45
742.444	-5.98
742.671	-4.14
742.898	-4.44
743.125	-8.23
743.352	-11.29
743.579	-10.73
743.806	-10.73
744.033	-7.79
744.26	-6.34
744.487	-6.64
744.714	-6.61
744.941	-8.44
745.167	-3.33
745.394	-5.15
745.621	-4.95
745.848	-4
746.075	-0.62
746.301	3.54
746.528	7.75
746.755	5.38
746.981	3.44
747.208	3.77
747.435	6.4
747.661	6.84
747.888	8.88
748.114	5.35
748.341	8.08
748.567	10.68
748.794	10.06
749.02	9.93
749.247	7.13
749.473	7.7
749.7	6.61
749.926	5.95
750.152	9.42
750.379	10.06
750.605	10.62
750.831	10.85
751.058	9.55
751.284	8.14
751.51	11.06
751.737	12.82
751.963	12.27
752.189	10
752.415	10.48
752.641	10.15
752.867	9.98
753.094	8
753.32	6.91
753.546	5.51
753.772	9.03
753.998	6.47
754.224	6.97
754.45	6.06
754.676	5.79
754.902	4.59
755.128	5.07
755.354	3.45
755.579	3.77
755.805	5.16
756.031	3.47
756.257	2.68
756.483	2.05
756.709	0.53
756.934	1.12
757.16	-0.43
757.386	-1.3
757.612	-3.46
757.837	-5.93
758.063	-3.59
758.289	-1.29
758.514	-2.46
758.74	-6.51
758.965	-9.34
759.191	-7.73
759.416	-5.95
759.642	-4.14
759.868	-3.69
760.093	-1.36
760.318	-4.06
760.544	-3.95
760.769	-4.53
760.995	-4.28
761.22	-5.3
761.445	-4.06
761.671	-1.54
761.896	0.97
762.121	1.82
762.347	1.72
762.572	-0.01
762.797	-0.16
763.022	0.43
763.248	4.07
763.473	4.06
763.698	2.85
763.923	3.52
764.148	3.05
764.373	4.04
764.598	6.19
764.823	9.54
765.048	6.58
765.273	3.06
765.498	1.03
765.723	2.35
765.948	4.22
766.173	3.79
766.398	3.83
766.623	0.38
766.848	-0.16
767.073	-3.78
767.298	-3.98
767.522	-4.83
767.747	-4.29
767.972	-4.03
768.197	-3.68
768.421	-6.01
768.646	-10.61
768.871	-15.4
769.095	-15.49
769.32	-14.11
769.545	-14.78
769.769	-14.04
769.994	-12.12
770.218	-13.85
770.443	-11.59
770.667	-9.39
770.892	-8.56
771.116	-9.69
771.341	-7.53
771.565	-7.96
771.79	-8.66
772.014	-9.09
772.238	-8.49
772.463	-5.96
772.687	-5.4
772.911	-7.08
773.136	-10.14
773.36	-9.98
773.584	-6.68
773.808	-8.78
774.033	-6.29
774.257	-4.92
774.481	-4.7
774.705	-6.75
774.929	-6.95
775.153	-7.29
775.377	-5.24
775.602	-4.09
775.826	0.09
776.05	2.92
776.274	2.09
776.498	2.07
776.722	0.62
776.945	0.54
777.169	0.46
777.393	-1.56
777.617	-2.29
777.841	-3.12
778.065	-2.1
778.289	-3.29
778.512	-4.1
778.736	-3.12
778.96	-3.4
779.184	-1.01
779.407	-1.78
779.631	-1.04
779.855	-1.8
780.078	0.48
780.302	-1.62
780.526	-4.27
780.749	-4.46
780.973	-3.34
781.196	-2.83
781.42	-5.01
781.643	-5.35
781.867	-3.68
782.09	-5.86
782.314	-6.3
782.537	-6.84
782.76	-9.83
782.984	-10.22
783.207	-11.83
783.431	-11.29
783.654	-12.3
783.877	-14.5
784.1	-16.42
784.324	-16.67
784.547	-18.74
784.77	-22.47
784.993	-23.33
785.216	-25.86
785.44	-25.03
785.663	-26.22
785.886	-22.83
786.109	-24.02
786.332	-23.64
786.555	-23.31
786.778	-20.38
787.001	-21.19
787.224	-18.65
787.447	-18.23
787.67	-16.24
787.893	-16.36
788.116	-17.1
788.339	-14.97
788.561	-16.2
788.784	-20.66
789.007	-22.03
789.23	-23.78
789.453	-23.73
789.675	-25.52
789.898	-27.91
790.121	-29.97
790.344	-29.87
790.566	-28.64
790.789	-28.77
791.012	-28.34
791.234	-26.34
791.457	-21.52
791.679	-18.58
791.902	-17.97
792.124	-17.43
792.347	-19.03
792.569	-20.28
792.792	-22.9
793.014	-19.78
793.237	-18.99
793.459	-19.46
793.681	-20.79
793.904	-21.3
794.126	-22.4
794.348	-22.53
794.571	-20.78
794.793	-22.8
795.015	-22.99
795.237	-24.57
795.46	-22.56
795.682	-20.35
795.904	-16.08
796.126	-17.26
796.348	-17.41
796.57	-12.32
796.792	-11.77
797.014	-6.56
797.237	-3.85
797.459	-1.74
797.681	0.16
797.903	-0.57
798.124	-0.21
798.346	10.88
798.568	11.14
798.79	14.73
799.012	16.22
799.234	16.68
799.456	18.3
799.678	19.79
799.899	16.69
800.121	13.38
800.343	14.15
800.565	15.43
800.786	15.52
801.008	16.42
801.23	16.89
801.451	17.54
801.673	16.42
801.895	17.12
802.116	18.75
802.338	19.8
802.559	19.62
802.781	16.81
803.002	19.32
803.224	21.88
803.445	18.88
803.667	21.68
803.888	18.17
804.109	16.42
804.331	14.25
804.552	14.81
804.773	17.09
804.995	14.76
805.216	-0.82
805.437	-2.19
805.658	-4.97
805.88	-6.27
806.101	-5.49
806.322	-4.98
806.543	-5
806.764	-6.88
806.985	-4.22
807.207	-3.68
807.428	-4.18
807.649	-6.78
807.87	-9.69
808.091	-9.19
808.312	-9.16
808.533	-2.92
808.754	-2.56
808.975	-4.17
809.195	-2.11
809.416	-1.14
809.637	-1.31
809.858	-3.97
810.079	-5.63
810.3	-3.94
810.52	-6.54
810.741	-7.79
810.962	-9.35
811.183	-9.2
811.403	-8.78
811.624	-9.22
811.845	-7.46
812.065	-4.24
812.286	-3.52
812.506	-4.12
812.727	-4.02
812.948	-1.94
813.168	-1.07
813.389	-3.83
813.609	-2.56
813.83	-2.93
814.05	-5.77
814.27	-5.78
814.491	-1.5
814.711	-0.81
814.931	-4.73
815.152	-5.64
815.372	-8.88
815.592	-9.56
815.813	-10.73
816.033	-13.52
816.253	-12.29
816.473	-12.46
816.694	-10.41
816.914	-10.78
817.134	-11.32
817.354	-12.71
817.574	-10.3
817.794	-10.52
818.014	-11.36
818.234	-13.07
818.454	-15.47
818.674	-18.91
818.894	-22.59
819.114	-20.56
819.334	-20.15
819.554	-17.03
819.774	-15.2
819.994	-17.65
820.214	-18.49
820.433	-17.05
820.653	-17.67
820.873	-14.39
821.093	-12.71
821.312	-15.92
821.532	-13.68
821.752	-8.54
821.972	-9.11
822.191	-7.01
822.411	-8.95
822.63	-7.4
822.85	-5.78
823.07	-9.88
823.289	-8.75
823.509	-10.17
823.728	-6.98
823.948	-7.99
824.167	-8.33
824.387	-11.03
824.606	-9.01
824.825	-10.83
825.045	-10.08
825.264	-9.75
825.483	-8.04
825.703	-4.57
825.922	-7.04
826.141	-8.32
826.361	-10.33
826.58	-15.41
826.799	-17.2
827.018	-16.09
827.237	-16.5
827.456	-14.47
827.676	-14.35
827.895	-14.1
828.114	-10.9
828.333	-11.32
828.552	-13.31
828.771	-12.62
828.99	-16.03
829.209	-14.01
829.428	-10.68
829.647	-11.55
829.866	-9.73
830.084	-9.89
830.303	-10.87
830.522	-12.91
830.741	-12.99
830.96	-11.67
831.179	-9.29
831.397	-10.46
831.616	-9.54
831.835	-9.49
832.053	-7.74
832.272	-5.63
832.491	-5.52
832.709	-6
832.928	-4.87
833.147	-4.84
833.365	-3.12
833.584	0.7
833.802	4.94
834.021	4.68
834.239	5.69
834.458	3.53
834.676	-1.77
834.894	-4.48
835.113	-5.55
835.331	-4.97
835.55	-6.32
835.768	-4.23
835.986	-3.37
836.204	-6.65
836.423	-5.66
836.641	-7.13
836.859	-8.8
837.077	-6.68
837.296	-6.03
837.514	-7.49
837.732	-7.93
837.95	-10.05
838.168	-6.99
838.386	-7.18
838.604	-4.97
838.822	-6.45
839.04	-7.89
839.258	-8.66
839.476	-6.72
839.694	-7.59
839.912	-8.58
840.13	-9.2
840.348	-7.11
840.566	-11.2
840.783	-8.82
841.001	-11.32
841.219	-9.75
841.437	-6.68
841.655	-5.57
841.872	-5.57
842.09	-6.44
842.308	-5.5
842.525	-6.94
842.743	-6.49
842.961	-7.76
843.178	-10.06
843.396	-5.6
843.613	-4.41
843.831	-3.02
844.048	-3.74
844.266	-2.36
844.483	-3.58
844.701	-3.75
844.918	-6.24
845.136	-6.24
845.353	-9.26
845.57	-7.79
845.788	-5.18
846.005	-6.25
846.222	-7.48
846.439	-5.09
846.657	-4.55
846.874	-4.02
847.091	-5.39
847.308	-3.54
847.526	-6.22
847.743	-6.09
847.96	-8.08
848.177	-8.71
848.394	-8.13
848.611	-8.44
848.828	-8.66
849.045	-9.98
849.262	-8.66
849.479	-9.06
849.696	-9.63
849.913	-10.65
850.13	-15.92
850.347	-12.39
850.564	-13.36
850.78	-15.07
850.997	-18
851.214	-16.79
851.431	-15.19
851.647	-17.49
851.864	-16.5
852.081	-14.31
852.298	-16.83
852.514	-18.63
852.731	-16.74
852.948	-14.37
853.164	-13.78
853.381	-12.86
853.597	-13.95
853.814	-16.82
854.03	-19.54
854.247	-17.52
854.463	-17.14
854.68	-16.14
854.896	-14.21
855.113	-13.78
855.329	-14.48
855.545	-13.14
855.762	-12.49
855.978	-16.58
856.194	-19.03
856.411	-14.95
856.627	-13.42
856.843	-10.49
857.059	-8.79
857.275	-9.44
857.492	-8.51
857.708	-3.45
857.924	-2.85
858.14	-0.44
858.356	0.01
858.572	-0.61
858.788	-2.66
859.004	-1.17
859.22	-3.41
859.436	-2.64
859.652	-6.29
859.868	-7.57
860.084	-8.06
860.3	-6.12
860.516	-5.84
860.731	-4.88
860.947	-8.14
861.163	-6.3
861.379	-8.14
861.595	-8.05
861.81	-7.99
862.026	-6.65
862.242	-6.15
862.457	-6.38
862.673	-3.46
862.889	-2.86
863.104	-3.96
863.32	-3.89
863.535	-4.08
863.751	-9.21
863.966	-6.87
864.182	-4.87
864.397	-6.82
864.613	-7.56
864.828	-10.31
865.044	-8.59
865.259	-6.55
865.474	-6.35
865.69	-4.6
865.905	-3.2
866.12	-6.81
866.336	-5.66
866.551	-5.35
866.766	-7.39
866.981	-9.51
867.196	-8.67
867.412	-8.33
867.627	-6.61
867.842	-7.76
868.057	-5.84
868.272	-7.64
868.487	-9.44
868.702	-11.3
868.917	-12.58
869.132	-11.17
869.347	-11.28
869.562	-11.1
869.777	-10.55
869.992	-11.67
870.207	-11.77
870.422	-12.3
870.636	-14.33
870.851	-15.45
871.066	-17.09
871.281	-17.47
871.495	-18.5
871.71	-15.71
871.925	-18.23
872.14	-18.8
872.354	-21
872.569	-21.82
872.783	-19.06
872.998	-19.38
873.213	-19.67
873.427	-15.54
873.642	-13.52
873.856	-14
874.071	-14.39
874.285	-15.94
874.5	-18.23
874.714	-20.91
874.928	-19.38
875.143	-19.38
875.357	-19.29
875.571	-21.42
875.786	-20.18
876	-16.66
876.214	-14.39
876.429	-16.97
876.643	-15.6
876.857	-15.23
877.071	-14.33
877.285	-15.51
877.499	-19.02
877.714	-16.24
877.928	-14.19
878.142	-15.47
878.356	-18.72
878.57	-17.14
878.784	-15.6
878.998	-16.39
879.212	-14.12
879.426	-16.68
879.639	-14.01
879.853	-14.96
880.067	-16.28
880.281	-19.33
880.495	-17.22
880.709	-15.02
880.922	-14.81
881.136	-13.79
881.35	-10.74
881.564	-12.27
881.777	-13.71
881.991	-12.33
882.205	-7.41
882.418	-9.06
882.632	-11.55
882.845	-13.15
883.059	-12.32
883.273	-12.75
883.486	-13.83
883.7	-11.02
883.913	-12.07
884.126	-10.63
884.34	-13.31
884.553	-15.71
884.767	-10.51
884.98	-10.57
885.193	-12.92
885.407	-13.96
885.62	-11.8
885.833	-12.48
886.046	-9.82
886.26	-12.05
886.473	-12.46
886.686	-13.88
886.899	-10.49
887.112	-12.19
887.326	-14.99
887.539	-13.36
887.752	-9.73
887.965	-11.38
888.178	-10.82
888.391	-10.97
888.604	-11.5
888.817	-15.42
889.03	-13.87
889.243	-15.54
889.455	-17.83
889.668	-17.22
889.881	-14.46
890.094	-15.58
890.307	-18.77
890.52	-15.83
890.732	-13.94
890.945	-15.12
891.158	-14.69
891.37	-17.87
891.583	-16.68
891.796	-14.01
892.008	-14.42
892.221	-15.12
892.434	-19.02
892.646	-20.36
892.859	-21.19
893.071	-19.95
893.284	-18.01
893.496	-19.18
893.709	-19.79
893.921	-16.98
894.133	-17.39
894.346	-20.03
894.558	-20.15
894.771	-19.72
894.983	-16.67
895.195	-15.2
895.407	-12.69
895.62	-16.44
895.832	-15.45
896.044	-13.34
896.256	-14.14
896.468	-16.79
896.681	-14.25
896.893	-13.92
897.105	-15.24
897.317	-15.33
897.529	-12.69
897.741	-11.7
897.953	-8.86
898.165	-11.16
898.377	-12.72
898.589	-11.6
898.801	-12.74
899.013	-9.31
899.224	-6.95
899.436	-4.44
899.648	-5.35
899.86	-6.2
900.072	-4.14
900.283	-2.97
900.495	-3.44
900.707	-3.76
900.919	-6.28
901.13	-5.06
901.342	-7.42
901.554	-9.6
901.765	-9.02
901.977	-11.7
902.188	-12.19
902.4	-13.39
902.611	-14.37
902.823	-15.51
903.034	-18.15
903.246	-20.32
903.457	-20.75
903.669	-21.19
903.88	-23.03
904.091	-22.9
904.303	-22.31
904.514	-23.9
904.725	-21.25
904.936	-20.61
905.148	-20.55
905.359	-16.41
905.57	-16.87
905.781	-19.43
905.992	-20.28
906.204	-18.73
906.415	-18.94
906.626	-21.32
906.837	-18.84
907.048	-19.3
907.259	-19.82
907.47	-19.46
907.681	-21.42
907.892	-17.06
908.103	-16.87
908.314	-20.24
908.525	-17.23
908.735	-15.75
908.946	-16.98
909.157	-17.14
909.368	-14.37
909.579	-11.98
909.789	-12.31
910	-13.15
910.211	-10.34
910.421	-10.29
910.632	-9.3
910.843	-12.13
911.053	-8.32
911.264	-6.56
911.475	-7.45
911.685	-7.83
911.896	-9.42
912.106	-8.7
912.317	-10.74
912.527	-10.03
912.737	-11.28
912.948	-11.02
913.158	-10.45
913.369	-13.52
913.579	-11.29
913.789	-8.96
914	-6.25
914.21	-6.36
914.42	-7.73
914.63	-7.56
914.841	-6.1
915.051	-5.49
915.261	-4.64
915.471	-2.02
915.681	-2.22
915.891	-2.85
916.101	-4.66
916.311	-5.15
916.521	-3.98
916.731	-3.07
916.941	-0.6
917.151	-2.13
917.361	1.56
917.571	-3.45
917.781	-5.56
917.991	-6.16
918.201	-5.91
918.411	-9.06
918.621	-9.52
918.83	-7.63
919.04	-8.5
919.25	-6
919.46	-3.84
919.669	-6.79
919.879	-6.81
920.089	-9.72
920.298	-11.89
920.508	-11.72
920.717	-9.94
920.927	-12.01
921.136	-10.18
921.346	-11.96
921.555	-14.76
921.765	-14.82
921.974	-16.35
922.184	-19.49
922.393	-21.19
922.603	-21.3
922.812	-19.2
923.021	-20.57
923.23	-23.14
923.44	-26.36
923.649	-26.66
923.858	-27.8
924.067	-27.71
924.277	-29.86
924.486	-28.97
924.695	-29.74
924.904	-26.78
925.113	-27.09
925.322	-25.7
925.531	-25.57
925.74	-29.08
925.949	-30.34
926.158	-26.76
926.367	-27.27
926.576	-26.45
926.785	-27.61
926.994	-28.5
927.203	-28.39
927.412	-27.73
927.621	-29.84
927.83	-26.74
928.038	-26.62
928.247	-27.63
928.456	-27.36
928.665	-25.49
928.873	-23.12
929.082	-21.19
929.291	-20.88
929.499	-18.53
929.708	-19.96
929.916	-18.59
930.125	-19.54
930.333	-21.05
930.542	-18.33
930.75	-14.2
930.959	-13.35
931.167	-14.34
931.376	-15.31
931.584	-13.52
931.793	-13.32
932.001	-13.98
932.209	-15.12
932.418	-16.75
932.626	-19.01
932.834	-20.54
933.042	-22.26
933.251	-21.63
933.459	-21.08
933.667	-21.22
933.875	-20.73
934.083	-19.99
934.291	-20.13
934.499	-20.05
934.707	-20.88
934.915	-20.21
935.123	-17.01
935.331	-18.26
935.539	-20.03
935.747	-21.53
935.955	-22.63
936.163	-22.66
936.371	-22.72
936.579	-20.93
936.787	-20.06
936.995	-22.37
937.202	-25.4
937.41	-25.52
937.618	-25.9
937.826	-26.05
938.033	-30.69
938.241	-33.63
938.449	-31.23
938.656	-28.24
938.864	-28.74
939.071	-28.45
939.279	-25.19
939.486	-23.14
939.694	-23.75
939.901	-26.44
940.109	-25.53
940.316	-26.23
940.524	-26.73
940.731	-27.62
940.939	-25.7
941.146	-24.62
941.353	-26.43
941.561	-26.9
941.768	-26.53
941.975	-24.69
942.182	-24.21
942.39	-24.02
942.597	-19.47
942.804	-19.04
943.011	-18.69
943.218	-18.4
943.425	-18.4
943.632	-17.02
943.839	-17.54
944.046	-17.37
944.253	-17.73
944.46	-16.42
944.667	-11.4
944.874	-12.28
945.081	-10.94
945.288	-9.59
945.495	-7.03
945.702	-7.85
945.909	-9.95
946.115	-8.62
946.322	-8.88
946.529	-11.45
946.736	-11.33
946.942	-9.12
947.149	-10.81
947.356	-13.12
947.562	-14.38
947.769	-14.22
947.976	-14.54
948.182	-13.81
948.389	-15.07
948.595	-15.97
948.802	-15.24
949.008	-18.05
949.215	-16.39
949.421	-17.67
949.628	-19.19
949.834	-19.17
950.04	-20.68
950.247	-17.23
950.453	-16.32
950.659	-17.28
950.865	-16.24
951.072	-21.26
951.278	-18.25
951.484	-20.49
951.69	-22.96
951.896	-24.94
952.103	-26.1
952.309	-24.28
952.515	-23.92
952.721	-21.33
952.927	-20.2
953.133	-21.02
953.339	-23.19
953.545	-21.9
953.751	-20.72
953.957	-18.05
954.163	-20.24
954.369	-20.98
954.574	-23.56
954.78	-23.64
954.986	-22.06
955.192	-20.29
955.398	-21.66
955.603	-24.2
955.809	-22.7
956.015	-22.04
956.22	-20.82
956.426	-19.2
956.632	-22.36
956.837	-22.66
957.043	-21.86
957.248	-20.19
957.454	-18.64
957.66	-22.88
957.865	-22.74
958.07	-21.82
958.276	-22.98
958.481	-23.83
958.687	-24.92
958.892	-25.79
959.097	-26.29
959.303	-25.46
959.508	-26.09
959.713	-24.93
959.919	-25.54
960.124	-25.79
960.329	-24.95
960.534	-20.75
960.739	-19.36
960.945	-16.78
961.15	-16.5
961.355	-17.69
961.56	-21.6
961.765	-22.56
961.97	-22.72
962.175	-20.19
962.38	-22.49
962.585	-22.37
962.79	-24.43
962.995	-25.03
963.2	-26.34
963.404	-26.14
963.609	-29.02
963.814	-31.59
964.019	-33.57
964.224	-34.99
964.428	-33.75
964.633	-31.69
964.838	-29.71
965.042	-29.63
965.247	-30.71
965.452	-31.5
965.656	-31.32
965.861	-29.89
966.066	-31.32
966.27	-28.74
966.475	-24.75
966.679	-29.57
966.884	-28.92
967.088	-30.63
967.292	-31.38
967.497	-29.42
967.701	-29.77
967.906	-28.75
968.11	-25.22
968.314	-20.71
968.518	-23.41
968.723	-21.44
968.927	-20.63
969.131	-19.35
969.335	-16.68
969.539	-15.84
969.744	-14.7
969.948	-11.18
970.152	-7.84
970.356	-5.79
970.56	-5.34
970.764	-6.41
970.968	-5.17
971.172	-3.7
971.376	-3.67
971.58	-2.42
971.784	-1.95
971.988	-3.58
972.192	-0.52
972.395	-1.5
972.599	-4.29
972.803	-6.06
973.007	-3.98
973.21	-3.94
973.414	-4.56
973.618	-4.86
973.822	-5.58
974.025	-4.92
974.229	-4.56
974.432	-8.31
974.636	-11.17
974.84	-11.35
975.043	-10.52
975.247	-11.83
975.45	-13.34
975.654	-12.23
975.857	-10.25
976.06	-11.03
976.264	-14.79
976.467	-13.19
976.671	-13.42
976.874	-11
977.077	-12.12
977.28	-13.27
977.484	-16.75
977.687	-15.79
977.89	-13.83
978.093	-13.91
978.297	-12.41
978.5	-15.25
978.703	-13.35
978.906	-11.46
979.109	-12.54
979.312	-11.36
979.515	-12.92
979.718	-14.03
979.921	-13.99
980.124	-15.54
980.327	-15.88
980.53	-16.11
980.733	-12.99
980.936	-10.73
981.138	-11.26
981.341	-11.21
981.544	-11.8
981.747	-12.57
981.949	-15.25
982.152	-14.1
982.355	-14.72
982.558	-9.56
982.76	-13.74
982.963	-15.43
983.165	-16.15
983.368	-14.62
983.571	-14.48
983.773	-10.09
983.976	-10.72
984.178	-10.48
984.381	-10.32
984.583	-12.73
984.785	-13.27
984.988	-11.29
985.19	-9.81
985.392	-11.28
985.595	-13.79
985.797	-13.55
985.999	-8.75
986.202	-7.58
986.404	-8.14
986.606	-4.4
986.808	-5.23
987.01	-4.31
987.212	-5.95
987.415	-6.17
987.617	-5.98
987.819	-6.5
988.021	-5.46
988.223	-6.35
988.425	-7.39
988.627	-6.07
988.829	-11.41
989.031	-8.96
989.232	-8.59
989.434	-7.85
989.636	-7.9
989.838	-8.58
990.04	-9.16
990.242	-10.39
990.443	-12.02
990.645	-10.08
990.847	-7.67
991.048	-6.38
991.25	-7.61
991.452	-9.89
991.653	-10.47
991.855	-9.79
992.057	-10.47
992.258	-11.36
992.46	-11.73
992.661	-9.95
992.863	-11.85
993.064	-10.89
993.265	-13.79
993.467	-15.42
993.668	-13.59
993.87	-13.08
994.071	-13.08
994.272	-12.39
994.473	-11.26
994.675	-11.5
994.876	-12.52
995.077	-12.4
995.278	-11.57
995.48	-10
995.681	-11.17
995.882	-10.07
996.083	-10.56
996.284	-14.79
996.485	-14.09
996.686	-15.2
996.887	-17.27
997.088	-20.82
997.289	-22.85
997.49	-23.32
997.691	-22.63
997.892	-22.52
998.092	-20.06
998.293	-19.11
998.494	-20.06
998.695	-20.23
998.896	-18.57
999.096	-19.6
999.297	-18.8
999.498	-19.63
999.698	-21.59
999.899	-25.64
1000.1	-27.64
1000.3	-27.07
1000.501	-27.28
1000.701	-27.07
1000.902	-28.28
1001.102	-27.45
1001.303	-24.54
1001.503	-27.55
1001.704	-27.16
1001.904	-28.8
1002.105	-28.42
1002.305	-28.68
1002.505	-28.9
1002.706	-29.36
1002.906	-30.22
1003.106	-30.18
1003.306	-27.72
1003.507	-26.08
1003.707	-27.46
1003.907	-26
1004.107	-24.55
1004.307	-25.04
1004.507	-23.69
1004.707	-24.33
1004.907	-25.72
1005.107	-26.62
1005.308	-25.24
1005.507	-27.08
1005.707	-23.39
1005.907	-22.77
1006.107	-18.53
1006.307	-17.36
1006.507	-17.12
1006.707	-15.81
1006.907	-15.36
1007.106	-15.29
1007.306	-16.84
1007.506	-16.28
1007.706	-13.86
1007.905	-16.39
1008.105	-15.66
1008.305	-17.7
1008.504	-16.67
1008.704	-11.16
1008.903	-10.55
1009.103	-6.13
1009.303	-8.74
1009.502	-8.86
1009.702	-8.3
1009.901	-7.4
1010.1	-10.61
1010.3	-8.68
1010.499	-10.56
1010.699	-13.82
1010.898	-15.97
1011.097	-15.02
1011.296	-15.97
1011.496	-17.77
1011.695	-17.28
1011.894	-18.9
1012.093	-13.9
1012.293	-14.69
1012.492	-15.02
1012.691	-16.12
1012.89	-17.03
1013.089	-18.72
1013.288	-17.11
1013.487	-15.99
1013.686	-16.32
1013.885	-18.91
1014.084	-17.71
1014.283	-18.01
1014.482	-18.73
1014.681	-18.33
1014.88	-22.6
1015.078	-21.4
1015.277	-25.17
1015.476	-25.19
1015.675	-24.08
1015.873	-25.22
1016.072	-27.04
1016.271	-23.61
1016.47	-28.08
1016.668	-26.49
1016.867	-26.22
1017.065	-26.01
1017.264	-26.92
1017.463	-26.96
1017.661	-27.24
1017.86	-27.45
1018.058	-27.41
1018.256	-31.83
1018.455	-33.29
1018.653	-31.93
1018.852	-31.16
1019.05	-33.05
1019.248	-35.81
1019.447	-37.16
1019.645	-36.46
1019.843	-38.35
1020.041	-35.88
1020.24	-36.51
1020.438	-31.5
1020.636	-30.83
1020.834	-33.5
1021.032	-31.31
1021.23	-32.93
1021.428	-31.76
1021.626	-27.04
1021.824	-27.38
1022.022	-28.88
1022.22	-25.4
1022.418	-25.58
1022.616	-25.28
1022.814	-25.62
1023.012	-25.26
1023.21	-24.32
1023.408	-24.54
1023.606	-24.9
1023.803	-18.87
1024.001	-17.37
1024.199	-19.92
1024.397	-17.91
1024.594	-17.71
1024.792	-20.67
1024.99	-19.49
1025.187	-19.26
1025.385	-13.79
1025.582	-13.32
1025.78	-14.67
1025.977	-13.84
1026.175	-14.91
1026.372	-14.59
1026.57	-18.18
1026.767	-16.03
1026.965	-15.14
1027.162	-15.22
1027.359	-15.6
1027.557	-14.84
1027.754	-18.55
1027.951	-20.06
1028.148	-17.73
1028.346	-20.25
1028.543	-21.99
1028.74	-22.17
1028.937	-25.57
1029.134	-26.04
1029.331	-26.4
1029.528	-25.27
1029.725	-25.39
1029.923	-29.32
1030.12	-25.84
1030.317	-25.35
1030.513	-24.95
1030.71	-22.57
1030.907	-19.3
1031.104	-19.25
1031.301	-19.22
1031.498	-20.48
1031.695	-20.57
1031.892	-19.04
1032.088	-19.46
1032.285	-20.96
1032.482	-22.27
1032.678	-25.09
1032.875	-28.17
1033.072	-27.36
1033.268	-27.2
1033.465	-26.64
1033.662	-30.28
1033.858	-29.34
1034.055	-29.88
1034.251	-26.86
1034.448	-28.05
1034.644	-27.36
1034.84	-25.28
1035.037	-22.37
1035.233	-22.13
1035.43	-19.69
1035.626	-21.66
1035.822	-21.52
1036.019	-22.87
1036.215	-28.06
1036.411	-27.38
1036.607	-27.86
1036.803	-31.47
1037	-31.44
1037.196	-33.9
1037.392	-34.85
1037.588	-37.06
1037.784	-36.19
1037.98	-37.68
1038.176	-38.55
1038.372	-39
1038.568	-36.43
1038.764	-34.76
1038.96	-31.22
1039.156	-32.7
1039.352	-35.21
1039.547	-33.52
1039.743	-31.23
1039.939	-30.31
1040.135	-29.74
1040.331	-31.69
1040.526	-27.65
1040.722	-28.76
1040.918	-29.45
1041.113	-32.64
1041.309	-32.21
1041.505	-35.94
1041.7	-33.82
1041.896	-33.81
1042.091	-34
1042.287	-33.06
1042.482	-32.33
1042.678	-33.32
1042.873	-32.15
1043.069	-34.41
1043.264	-33.34
1043.459	-31.34
1043.655	-29.75
1043.85	-31.23
1044.045	-30.83
1044.24	-29.69
1044.436	-26.89
1044.631	-27.9
1044.826	-27.69
1045.021	-31.27
1045.216	-29.37
