Data from FLMT021711__9__18-14-40-688.txt Node

Date: Tue Nov 05 18:14:40 CET 2024
User: Etudiants TP
Spectrometer: FLMT02171
Trigger mode: 0
Integration Time (sec): 1.000000E-1
Scans to average: 5
Electric dark correction enabled: true
Nonlinearity correction enabled: false
Boxcar width: 15
XAxis mode: Wavelengths
Number of Pixels in Spectrum: 3648
>>>>>Begin Spectral Data<<<<<
194.658	-65.76
194.923	-63.74
195.188	-56.58
195.453	-57.13
195.717	-51.52
195.982	-51.46
196.247	-49.69
196.512	-50.84
196.777	-49.05
197.042	-47.44
197.307	-48.45
197.572	-43.85
197.837	-44.86
198.101	-41.75
198.366	-38.18
198.631	-36.83
198.896	-32.01
199.161	-26.08
199.425	-18.95
199.69	-8.61
199.955	-7.82
200.22	-10.37
200.484	-10.93
200.749	-10.92
201.014	-9.52
201.278	-8.34
201.543	-6.4
201.807	-6.66
202.072	-5.41
202.337	-5.6
202.601	-5.85
202.866	-7.11
203.13	-6.13
203.395	-7.77
203.659	-6.73
203.924	-8.57
204.189	-7.77
204.453	-6.46
204.717	-3.64
204.982	-2.96
205.246	-1.43
205.511	1.33
205.775	1.21
206.04	8.91
206.304	8.31
206.568	9.02
206.833	9.73
207.097	12.24
207.361	15.07
207.626	19.49
207.89	20.62
208.154	20.87
208.419	22.21
208.683	23.31
208.947	25.05
209.211	24.34
209.476	23.66
209.74	24.36
210.004	24.57
210.268	25.36
210.532	28.93
210.796	28.09
211.061	28.66
211.325	28.99
211.589	27.93
211.853	26.54
212.117	26.14
212.381	26.6
212.645	27.09
212.909	25.56
213.173	23.08
213.437	22.76
213.701	23.28
213.965	23.59
214.229	16.48
214.493	16.15
214.757	15.67
215.021	15.36
215.285	19.44
215.549	21.34
215.813	18.43
216.077	16.85
216.34	18.91
216.604	17.27
216.868	17.78
217.132	19.55
217.396	18.32
217.659	18.41
217.923	14.16
218.187	12.9
218.451	12.29
218.714	9.03
218.978	10.34
219.242	11.75
219.505	13.23
219.769	14.49
220.033	15.46
220.296	17.46
220.56	18.34
220.824	15.41
221.087	16.59
221.351	16.39
221.614	16.65
221.878	17.47
222.142	14.96
222.405	16.02
222.669	19.43
222.932	15.41
223.196	14.19
223.459	10.04
223.722	10.57
223.986	9.67
224.249	8.28
224.513	7.95
224.776	8.79
225.04	8.23
225.303	5.57
225.566	6.4
225.83	8.45
226.093	12.21
226.356	12.06
226.62	10.04
226.883	11.16
227.146	10.28
227.409	9.26
227.673	6.33
227.936	4.65
228.199	5.32
228.462	3.8
228.725	3.52
228.989	3.45
229.252	4.16
229.515	11.17
229.778	9.22
230.041	9.17
230.304	8.14
230.567	8.69
230.83	5.71
231.093	8.75
231.356	9.27
231.619	15.74
231.882	14.21
232.145	15.3
232.408	13.93
232.671	13.1
232.934	12.28
233.197	9.35
233.46	9.96
233.723	10.71
233.986	9.11
234.249	5.73
234.512	6.98
234.775	10.96
235.037	10.62
235.3	10.83
235.563	10.65
235.826	12.15
236.089	14.56
236.351	14.55
236.614	16.35
236.877	17.69
237.14	20.44
237.402	20.41
237.665	13.35
237.928	13.17
238.19	9.18
238.453	11.44
238.716	11.34
238.978	11.61
239.241	9.16
239.503	9.96
239.766	3.1
240.029	2.32
240.291	5.64
240.554	7.52
240.816	7.44
241.079	7.89
241.341	9.08
241.604	6.96
241.866	4.54
242.129	5.41
242.391	8.38
242.653	8.05
242.916	7.59
243.178	6.54
243.441	7.63
243.703	7.44
243.965	4.71
244.228	5.5
244.49	5.81
244.752	6.97
245.015	7.57
245.277	9.61
245.539	7.89
245.801	9
246.064	9.18
246.326	10.04
246.588	10.08
246.85	11.34
247.112	12.73
247.374	13.48
247.637	16.4
247.899	19.41
248.161	19.44
248.423	15.61
248.685	14.76
248.947	13.73
249.209	13.94
249.471	15.83
249.733	17.37
249.995	16.08
250.257	15.31
250.519	14.09
250.781	17.02
251.043	14.61
251.305	18.02
251.567	19.68
251.829	20.27
252.091	19.86
252.353	15.2
252.615	15.1
252.876	12.19
253.138	9.79
253.4	5.8
253.662	7.44
253.924	9.96
254.185	12.23
254.447	12.99
254.709	12.29
254.971	13.81
255.232	13.74
255.494	13.07
255.756	11.05
256.017	10.42
256.279	11.49
256.541	10.46
256.802	10.85
257.064	12.92
257.326	12.2
257.587	12.19
257.849	12.88
258.11	16.24
258.372	17.45
258.633	17.89
258.895	16.26
259.156	15.47
259.418	14.13
259.679	9.35
259.941	7.27
260.202	10.96
260.464	12.64
260.725	13.1
260.987	12.84
261.248	11.45
261.509	11.74
261.771	10.91
262.032	13.09
262.293	11.98
262.555	11.58
262.816	11.18
263.077	7.87
263.338	6.49
263.6	7.84
263.861	7.11
264.122	5.68
264.383	7.22
264.645	8.75
264.906	6.93
265.167	7.07
265.428	6.86
265.689	8.04
265.95	6.11
266.211	7.95
266.473	7.62
266.734	3.96
266.995	0.91
267.256	1.63
267.517	2.88
267.778	7.72
268.039	8.79
268.3	7.43
268.561	6.02
268.822	9.18
269.083	7.64
269.344	7.29
269.604	5.68
269.865	5.64
270.126	0.5
270.387	0.86
270.648	2.39
270.909	1.18
271.17	1.07
271.43	-1.93
271.691	-4
271.952	-4.85
272.213	-2.49
272.473	-5.51
272.734	-3.58
272.995	-0.38
273.256	-0.94
273.516	1.64
273.777	-1.56
274.038	0.13
274.298	-3.47
274.559	-3.65
274.82	1.65
275.08	3.95
275.341	5.12
275.601	3.69
275.862	1.42
276.122	2.62
276.383	4.42
276.643	6.19
276.904	4.4
277.164	7.46
277.425	8.05
277.685	13.92
277.946	14.53
278.206	16.09
278.467	17.17
278.727	16.71
278.987	17.17
279.248	17.44
279.508	19.68
279.768	21.42
280.029	22.19
280.289	18.97
280.549	18.9
280.81	17.37
281.07	15.14
281.33	16.65
281.59	14.13
281.851	17.43
282.111	17.23
282.371	17.1
282.631	18.37
282.891	16.32
283.151	14.04
283.412	11.63
283.672	10.8
283.932	9.98
284.192	10.37
284.452	7.02
284.712	4.51
284.972	2.89
285.232	1.19
285.492	3.63
285.752	0.56
286.012	6.54
286.272	7.92
286.532	5.4
286.792	5.24
287.052	7.72
287.312	8.16
287.571	5.6
287.831	6.62
288.091	4.25
288.351	4.01
288.611	8.96
288.871	10.31
289.13	11.36
289.39	8.59
289.65	10.5
289.91	6.94
290.17	9.38
290.429	10.74
290.689	7.43
290.949	4.71
291.208	5.89
291.468	11.15
291.728	12.95
291.987	15.35
292.247	13.34
292.506	17.38
292.766	20.45
293.026	20.29
293.285	20.61
293.545	22
293.804	22.21
294.064	18.6
294.323	16.59
294.583	17.82
294.842	17.94
295.102	17.45
295.361	18.51
295.621	20.14
295.88	20.49
296.139	20.05
296.399	21.23
296.658	15.23
296.917	14.39
297.177	10.1
297.436	11.49
297.695	8.98
297.955	11.26
298.214	8.48
298.473	10.91
298.732	13.86
298.992	16.18
299.251	17.09
299.51	11.51
299.769	14.03
300.028	12.51
300.287	13.5
300.547	12.45
300.806	10.69
301.065	12.18
301.324	13.15
301.583	10
301.842	5.58
302.101	3.16
302.36	4.48
302.619	4.34
302.878	5.38
303.137	2.02
303.396	2.49
303.655	4.8
303.914	0.94
304.173	1.32
304.432	1.44
304.691	4.42
304.95	1.76
305.208	7.73
305.467	7.64
305.726	7.47
305.985	8.61
306.244	11.37
306.503	11.03
306.761	10.1
307.02	7.98
307.279	7.47
307.537	10.05
307.796	4.42
308.055	2.75
308.314	3.52
308.572	1.33
308.831	1.67
309.09	3.44
309.348	4.44
309.607	4.35
309.865	8.39
310.124	8.42
310.382	8.87
310.641	9.78
310.9	9.02
311.158	11.14
311.417	10.39
311.675	9.99
311.933	11.53
312.192	13.69
312.45	13.35
312.709	11.85
312.967	10.89
313.226	9.61
313.484	9.51
313.742	8.9
314.001	6.5
314.259	4.48
314.517	4.47
314.776	6.57
315.034	10.16
315.292	9.39
315.55	6.09
315.809	6.21
316.067	6.67
316.325	5.07
316.583	7.2
316.841	7.73
317.1	3.77
317.358	0.4
317.616	-0.79
317.874	-1.93
318.132	-3.57
318.39	-3.83
318.648	-5.3
318.906	-7.03
319.164	-7.99
319.422	-8.25
319.68	-10.32
319.938	-9.4
320.196	-9.41
320.454	-8.63
320.712	-7.66
320.97	-7.46
321.228	-8.68
321.486	-7.46
321.744	-6.85
322.002	-4.44
322.26	-5.43
322.517	-6.28
322.775	-9.73
323.033	-12.38
323.291	-9.57
323.549	-6.98
323.806	-4.82
324.064	-4.09
324.322	-2.57
324.58	-4.81
324.837	-3.44
325.095	-4.1
325.353	-2.36
325.61	0.36
325.868	0.98
326.126	5.55
326.383	4.81
326.641	3.45
326.898	6.51
327.156	6.61
327.413	7.46
327.671	7.89
327.928	9.07
328.186	9.14
328.443	8.47
328.701	12.23
328.958	14.24
329.216	14.76
329.473	12.17
329.731	12.8
329.988	12.3
330.245	14.39
330.503	15.4
330.76	15.31
331.017	17.46
331.275	13.64
331.532	13.04
331.789	10.71
332.047	10.59
332.304	7.43
332.561	8.15
332.818	6.88
333.076	8.91
333.333	10.85
333.59	10.62
333.847	11.16
334.104	9.12
334.361	9.13
334.618	9.11
334.876	6.3
335.133	6.73
335.39	4.82
335.647	7.97
335.904	4.08
336.161	1.12
336.418	1.26
336.675	-2.85
336.932	-2.09
337.189	-1.72
337.446	0.46
337.703	-0.97
337.96	-5.39
338.216	-5.15
338.473	-7.95
338.73	-7.17
338.987	-7.03
339.244	-3.27
339.501	-4.3
339.757	-3.21
340.014	-2.83
340.271	-0.56
340.528	0.39
340.785	5.63
341.041	5.03
341.298	1.88
341.555	1.43
341.811	1
342.068	-1.94
342.325	-2.63
342.581	1.06
342.838	2.4
343.094	2.21
343.351	1.54
343.608	-2.6
343.864	0.82
344.121	3.67
344.377	3.53
344.634	2.7
344.89	2.23
345.147	1.24
345.403	-0.39
345.66	-0.65
345.916	3.02
346.172	0.81
346.429	-0.18
346.685	-2.07
346.942	-2.88
347.198	-6.83
347.454	-4.47
347.711	-4.15
347.967	-6.7
348.223	-6.88
348.48	-7.07
348.736	-4.87
348.992	-4.32
349.248	-1.82
349.504	-2.17
349.761	-1.57
350.017	-0.48
350.273	-0.85
350.529	-3.01
350.785	-2.67
351.041	-3.62
351.297	-2.26
351.554	-3.15
351.81	-6.25
352.066	-7.91
352.322	-8.79
352.578	-8
352.834	-10.19
353.09	-9.2
353.346	-8.49
353.602	-8.86
353.858	-9.39
354.114	-9.56
354.369	-6.7
354.625	-2.57
354.881	-3.36
355.137	-0.86
355.393	-1.51
355.649	-1.34
355.905	-0.7
356.16	0.73
356.416	0.21
356.672	-7.8
356.928	-7.7
357.183	-8.53
357.439	-8.8
357.695	-11.13
357.951	-7.66
358.206	-7.75
358.462	-8.2
358.718	-11.41
358.973	-9.2
359.229	-8.04
359.484	-7.1
359.74	-2.86
359.996	-1.6
360.251	2.29
360.507	0.99
360.762	2.12
361.018	4.62
361.273	3.79
361.529	6.83
361.784	7.37
362.04	10.21
362.295	8.82
362.55	7.4
362.806	10.29
363.061	11.92
363.316	11.68
363.572	13.31
363.827	15.82
364.082	11.97
364.338	12.3
364.593	13.16
364.848	14.32
365.104	12.67
365.359	15.97
365.614	17.86
365.869	14.97
366.124	15.85
366.38	14.55
366.635	16.87
366.89	16.33
367.145	15.31
367.4	18.78
367.655	18.56
367.91	19.16
368.165	16.91
368.42	13.85
368.675	14.84
368.93	13.61
369.185	9.21
369.44	8.42
369.695	9.93
369.95	6.09
370.205	5.77
370.46	3.96
370.715	2.67
370.97	1.6
371.225	1.72
371.48	2.65
371.734	2.19
371.989	3.73
372.244	3.93
372.499	5.22
372.754	3.26
373.008	2.72
373.263	-2.26
373.518	-1.82
373.773	-3.04
374.027	-3.83
374.282	-0.66
374.537	0.48
374.791	1.89
375.046	1.07
375.301	-0.3
375.555	-2.32
375.81	-1.43
376.064	-0.59
376.319	4.2
376.573	3.51
376.828	1.26
377.082	7.37
377.337	4.68
377.591	0.75
377.846	2.99
378.1	5.78
378.355	5.89
378.609	5.77
378.863	4.01
379.118	5.39
379.372	4.64
379.627	3.13
379.881	2.01
380.135	2.29
380.389	2.23
380.644	3.06
380.898	2.88
381.152	4.63
381.407	5.07
381.661	6.81
381.915	7.71
382.169	7.24
382.423	5.21
382.677	1.96
382.932	3.24
383.186	3.89
383.44	4.85
383.694	5.6
383.948	3.86
384.202	1.64
384.456	3.99
384.71	4.79
384.964	3.7
385.218	6.8
385.472	7.83
385.726	6.15
385.98	4.21
386.234	5.71
386.488	2.53
386.742	2.84
386.996	0.33
387.249	-0.23
387.503	1.98
387.757	2.3
388.011	3.11
388.265	3.3
388.518	4.38
388.772	6.15
389.026	6.93
389.28	5.48
389.533	5.59
389.787	9.33
390.041	6.7
390.295	6.73
390.548	7.21
390.802	10.66
391.055	9.44
391.309	9.18
391.563	8.01
391.816	8.82
392.07	9.18
392.323	9.37
392.577	9.96
392.83	9.93
393.084	15.13
393.337	19
393.591	20.54
393.844	20.81
394.098	25.4
394.351	30.45
394.604	33.54
394.858	35.17
395.111	36.37
395.364	33.98
395.618	37.31
395.871	34.51
396.124	33.18
396.378	31.65
396.631	31.55
396.884	29.93
397.137	29.11
397.391	28.2
397.644	24.14
397.897	25.88
398.15	28.58
398.403	31.65
398.657	28.81
398.91	27.88
399.163	27.87
399.416	25.7
399.669	24.97
399.922	22.76
400.175	21.79
400.428	22.13
400.681	26.55
400.934	25.94
401.187	29.4
401.44	34.98
401.693	38.27
401.946	35.77
402.199	31.92
402.452	32.54
402.704	29.97
402.957	28.64
403.21	30.18
403.463	29.27
403.716	30.36
403.969	32.12
404.221	32.23
404.474	34.36
404.727	38.3
404.98	41.5
405.232	43.09
405.485	45.02
405.738	48.34
405.99	48.36
406.243	48.2
406.496	50.59
406.748	50.59
407.001	50.26
407.253	51.9
407.506	52
407.759	53.49
408.011	50.18
408.264	50.09
408.516	46.22
408.769	38.63
409.021	34.64
409.274	29.16
409.526	27.1
409.778	25.08
410.031	26.6
410.283	24.05
410.536	28.05
410.788	25.96
411.04	24.66
411.293	24.41
411.545	25.49
411.797	23.94
412.049	24.6
412.302	25.87
412.554	24.91
412.806	21.53
413.058	20.01
413.311	19.89
413.563	17.73
413.815	17.22
414.067	14.59
414.319	11.75
414.571	12.69
414.823	11.12
415.075	9.78
415.328	10.5
415.58	14.61
415.832	16.4
416.084	17.11
416.336	17.86
416.588	22.62
416.84	20.63
417.091	24.31
417.343	20.8
417.595	21.57
417.847	22.54
418.099	24.15
418.351	24.1
418.603	26.31
418.855	28.06
419.106	29.91
419.358	29.59
419.61	31
419.862	30.03
420.114	26.5
420.365	25.88
420.617	28.37
420.869	27.09
421.12	26.33
421.372	26.25
421.624	24.5
421.875	25.69
422.127	24.09
422.379	24.8
422.63	27.33
422.882	26.34
423.133	25.71
423.385	24.14
423.636	24.45
423.888	25.79
424.139	26.12
424.391	24.39
424.642	22.72
424.894	18.43
425.145	20.24
425.396	17.2
425.648	19.26
425.899	16.45
426.151	16.7
426.402	16.4
426.653	16.06
426.905	14.89
427.156	12.27
427.407	12.4
427.658	12.36
427.91	11.79
428.161	11.14
428.412	12.02
428.663	12.35
428.914	13.57
429.166	15.19
429.417	15.89
429.668	13.96
429.919	11.55
430.17	10.25
430.421	9.51
430.672	13.43
430.923	14.2
431.174	13.72
431.425	16
431.676	20.24
431.927	26.14
432.178	38.09
432.429	51.72
432.68	65.29
432.931	79.04
433.182	90.26
433.433	92.5
433.683	98
433.934	99.33
434.185	99.5
434.436	99.32
434.687	100.37
434.937	102.67
435.188	99.86
435.439	98.94
435.69	100.92
435.94	100.06
436.191	99.6
436.442	100.79
436.692	98.68
436.943	94.98
437.194	93.11
437.444	96.25
437.695	99.94
437.945	100.46
438.196	99.06
438.447	97.68
438.697	97.02
438.948	95.77
439.198	90.95
439.449	81.86
439.699	74.04
439.949	62.62
440.2	48.8
440.45	36.65
440.701	23.48
440.951	14.42
441.201	10
441.452	4.78
441.702	1.04
441.952	0.57
442.203	-0.37
442.453	-3.89
442.703	-4.05
442.953	-2.9
443.204	-1.47
443.454	-4.56
443.704	-4.01
443.954	-7.25
444.204	-7.2
444.455	-6.42
444.705	-5.29
444.955	-4.01
445.205	-5.91
445.455	-9.31
445.705	-9.58
445.955	-9.27
446.205	-10.61
446.455	-9.41
446.705	-8.1
446.955	-7.49
447.205	-5.98
447.455	-5.28
447.705	-7.94
447.955	-9.15
448.205	-8.34
448.454	-9.26
448.704	-8.47
448.954	-10.7
449.204	-9.56
449.454	-8.98
449.704	-10.15
449.953	-9.66
450.203	-6.72
450.453	-8.95
450.703	-6.6
450.952	-7.51
451.202	-6.68
451.452	-6.65
451.701	-3.93
451.951	-0.81
452.201	-0.98
452.45	-0.64
452.7	0.05
452.949	0.14
453.199	2.03
453.448	3.91
453.698	4.4
453.947	3.69
454.197	1.82
454.446	0.09
454.696	3.48
454.945	3.28
455.195	1.97
455.444	1.97
455.693	6.62
455.943	4.65
456.192	4.88
456.442	4.99
456.691	6.17
456.94	4.7
457.189	4.11
457.439	5.82
457.688	6
457.937	5.52
458.186	7.48
458.436	5.98
458.685	6.98
458.934	7.06
459.183	6.25
459.432	8.99
459.681	7.89
459.93	6.72
460.179	5.46
460.429	3.94
460.678	6.73
460.927	8.44
461.176	6.54
461.425	6.27
461.674	8.44
461.923	8.86
462.172	8.68
462.42	7.23
462.669	9.29
462.918	9.26
463.167	10
463.416	6.75
463.665	6.81
463.914	7.44
464.162	5.5
464.411	5.55
464.66	8.05
464.909	6.61
465.158	6
465.406	7.19
465.655	8.43
465.904	10.46
466.152	11.59
466.401	11.98
466.65	13.75
466.898	11.5
467.147	7.69
467.395	7.74
467.644	9.44
467.893	7.97
468.141	8.16
468.39	6.38
468.638	4.85
468.887	4.85
469.135	4.61
469.384	4.66
469.632	6.15
469.88	5.67
470.129	6.87
470.377	4.18
470.626	6.37
470.874	7.91
471.122	8.51
471.371	8.12
471.619	7.81
471.867	11.49
472.115	11.39
472.364	9.45
472.612	12.64
472.86	11
473.108	11.58
473.356	11.66
473.605	10.3
473.853	7.55
474.101	6.33
474.349	5.12
474.597	10.37
474.845	9.68
475.093	7.61
475.341	7.12
475.589	9.3
475.837	10.9
476.085	10.88
476.333	9.93
476.581	11.5
476.829	10.49
477.077	13.63
477.325	11.95
477.573	14.98
477.821	14.15
478.069	16.28
478.317	16.99
478.564	18.5
478.812	17.79
479.06	16.87
479.308	15.97
479.555	16.23
479.803	16.33
480.051	19.01
480.299	20.33
480.546	23.25
480.794	22.52
481.042	24.17
481.289	25.82
481.537	29.73
481.784	31.75
482.032	36.93
482.28	37.37
482.527	39.2
482.775	43.21
483.022	48.72
483.27	54.1
483.517	60.67
483.765	63.5
484.012	68.16
484.259	70.31
484.507	77.61
484.754	81.5
485.002	86.05
485.249	87.32
485.496	92.31
485.744	94.48
485.991	96.53
486.238	99.15
486.486	104.5
486.733	109.66
486.98	114.53
487.227	114.65
487.474	119.54
487.722	123.59
487.969	122.71
488.216	123.24
488.463	124.69
488.71	123.24
488.957	122.79
489.204	122.73
489.451	123.56
489.699	122.66
489.946	120.21
490.193	118.31
490.44	117.33
490.687	115.28
490.934	110.95
491.18	106.24
491.427	106.71
491.674	106.79
491.921	103.99
492.168	99.86
492.415	94.91
492.662	94.12
492.909	94.18
493.155	91.15
493.402	87.81
493.649	84.61
493.896	84.63
494.142	79.61
494.389	76.02
494.636	73.27
494.883	70.16
495.129	64.99
495.376	60.65
495.623	60.59
495.869	61.46
496.116	60.49
496.362	61.38
496.609	62.4
496.855	65.48
497.102	63.9
497.348	61.55
497.595	61.89
497.841	66.66
498.088	63.34
498.334	61
498.581	57.83
498.827	54.81
499.074	54.26
499.32	54.62
499.566	58.32
499.813	57.68
500.059	53.51
500.305	52.5
500.552	49.56
500.798	47.38
501.044	49.59
501.29	46.72
501.537	41.47
501.783	43.1
502.029	46.17
502.275	42.11
502.521	39.86
502.767	40.33
503.013	42.61
503.26	38.51
503.506	34.27
503.752	34.56
503.998	31.11
504.244	31.02
504.49	27.39
504.736	27.89
504.982	25.43
505.228	26.55
505.474	25.25
505.72	26.69
505.966	25.68
506.211	29.05
506.457	29.83
506.703	25.71
506.949	22.87
507.195	19.27
507.441	15.21
507.686	18.22
507.932	16.76
508.178	18.46
508.424	17.08
508.669	14.2
508.915	14.67
509.161	16.44
509.406	17.08
509.652	14.81
509.898	17.9
510.143	18.09
510.389	16.99
510.634	11.05
510.88	15.18
511.125	17.1
511.371	17.81
511.616	18.46
511.862	15.41
512.107	11.97
512.353	13.57
512.598	14.53
512.844	11.92
513.089	8.9
513.335	9.47
513.58	7.65
513.825	8.01
514.071	5.78
514.316	6.14
514.561	6.44
514.806	6.03
515.052	9.91
515.297	8.42
515.542	9.34
515.787	9.74
516.033	10.67
516.278	11.33
516.523	11.28
516.768	9.97
517.013	6.28
517.258	5.61
517.503	6.12
517.748	7.59
517.993	7.05
518.238	8.42
518.483	6.72
518.728	7
518.973	3.69
519.218	2.75
519.463	3.32
519.708	1.64
519.953	-0.27
520.198	0.38
520.443	2.46
520.688	3.78
520.933	1.94
521.177	2.45
521.422	0.05
521.667	3.97
521.912	3.84
522.157	0.63
522.401	3.14
522.646	2.15
522.891	2.46
523.135	2.48
523.38	2.08
523.625	2.02
523.869	4.08
524.114	5.75
524.358	5.2
524.603	6.14
524.848	4.85
525.092	2.58
525.337	3.89
525.581	5.22
525.826	8.64
526.07	9.11
526.315	9.59
526.559	10
526.803	8.82
527.048	12.46
527.292	15.53
527.537	15.39
527.781	15.7
528.025	13.31
528.269	16.8
528.514	18.89
528.758	18.8
529.002	20.62
529.247	25.1
529.491	26.67
529.735	32.97
529.979	35.61
530.223	40.56
530.467	41.73
530.712	42.56
530.956	45.03
531.2	48.77
531.444	49.02
531.688	52.26
531.932	54.58
532.176	60.18
532.42	64.57
532.664	69.14
532.908	72.53
533.152	76.54
533.396	80.05
533.64	85.2
533.884	89.33
534.128	97.1
534.371	108.64
534.615	120.32
534.859	130.65
535.103	142.3
535.347	156.96
535.59	173.73
535.834	185.84
536.078	205.96
536.322	229.44
536.565	256.26
536.809	283.04
537.053	318.68
537.296	358.25
537.54	408.09
537.784	467.48
538.027	537.64
538.271	613.76
538.514	694.87
538.758	778.96
539.001	861.11
539.245	943.9
539.488	1026.03
539.732	1106.06
539.975	1182.04
540.219	1259.77
540.462	1329.58
540.706	1401.64
540.949	1468.41
541.192	1534.08
541.436	1606.76
541.679	1681.45
541.922	1765.37
542.166	1866.04
542.409	1987.47
542.652	2121.64
542.895	2261.85
543.139	2398.76
543.382	2519.3
543.625	2617.64
543.868	2705.73
544.111	2776.8
544.354	2834.18
544.598	2875.92
544.841	2904.26
545.084	2911.27
545.327	2902.39
545.57	2882.96
545.813	2852.31
546.056	2811.1
546.299	2764.69
546.542	2718.8
546.785	2669.76
547.028	2619.37
547.271	2566.7
547.514	2514.95
547.756	2461.24
547.999	2413.28
548.242	2363.1
548.485	2309.88
548.728	2258.87
548.971	2198.82
549.213	2138.37
549.456	2059.25
549.699	1958.27
549.942	1840.32
550.184	1706.31
550.427	1562.61
550.67	1421.79
550.912	1294.52
551.155	1186.29
551.398	1082.96
551.64	992.43
551.883	911.61
552.125	839.04
552.368	774.53
552.61	715.77
552.853	667.64
553.095	620.4
553.338	577.07
553.58	536.42
553.823	498.23
554.065	466.52
554.308	432.3
554.55	401.33
554.792	370.91
555.035	344.91
555.277	317.8
555.519	295.21
555.762	271.47
556.004	253.6
556.246	231.29
556.488	216.48
556.731	196.65
556.973	185.75
557.215	171.94
557.457	160.56
557.699	152.61
557.941	140.53
558.183	130.68
558.426	125.49
558.668	113.51
558.91	108.5
559.152	101.39
559.394	93.26
559.636	89.65
559.878	85.98
560.12	81.36
560.362	79.01
560.604	74.93
560.845	71.01
561.087	68.43
561.329	67.38
561.571	61.89
561.813	59.62
562.055	56.54
562.297	55.96
562.538	55.08
562.78	57.53
563.022	52.34
563.264	51.4
563.505	49.04
563.747	49.67
563.989	45.75
564.23	44.97
564.472	42.22
564.714	44.03
564.955	43.94
565.197	39.34
565.438	41.5
565.68	44.34
565.921	40.42
566.163	41.87
566.404	39.47
566.646	41.75
566.887	44.09
567.129	44.74
567.37	41.58
567.612	43.17
567.853	38.61
568.094	38.86
568.336	38.32
568.577	39.22
568.818	39.57
569.06	36.04
569.301	33.93
569.542	33.55
569.783	34.69
570.025	33.26
570.266	32.52
570.507	33.17
570.748	33.02
570.989	34.82
571.23	36.46
571.472	36.56
571.713	35.53
571.954	36.33
572.195	34.58
572.436	36.24
572.677	40.76
572.918	46.43
573.159	53.12
573.4	65.06
573.641	81.52
573.882	99.24
574.123	114.19
574.364	124.49
574.604	137.36
574.845	149.09
575.086	165.85
575.327	185.14
575.568	205.99
575.809	226.49
576.049	247.13
576.29	265.3
576.531	288.97
576.771	311.65
577.012	333.14
577.253	351.11
577.494	369.19
577.734	384.37
577.975	399.88
578.215	413.2
578.456	423.74
578.697	437.54
578.937	452.7
579.178	467.23
579.418	480.54
579.659	495.54
579.899	507.29
580.14	519.99
580.38	530.26
580.62	537.19
580.861	544.97
581.101	544.51
581.342	544.22
581.582	538.62
581.822	542.02
582.063	543.56
582.303	546.93
582.543	545.68
582.783	545.37
583.024	543.4
583.264	544.42
583.504	540.82
583.744	546.12
583.984	551.89
584.224	558.19
584.465	564.1
584.705	571.66
584.945	577.41
585.185	582.42
585.425	587.33
585.665	590.7
585.905	592.55
586.145	592.86
586.385	591.16
586.625	590.49
586.865	586.61
587.105	580.64
587.345	576.13
587.585	570.26
587.824	562.56
588.064	556.18
588.304	548.4
588.544	544.17
588.784	539.6
589.024	542.73
589.263	542.84
589.503	544.61
589.743	553.52
589.982	560.29
590.222	565.47
590.462	567.21
590.701	566.35
590.941	568.01
591.181	560.88
591.42	549.65
591.66	541.9
591.899	530.57
592.139	516.03
592.378	503.88
592.618	491.48
592.857	481.25
593.097	472.84
593.336	465.18
593.576	459.02
593.815	454.51
594.055	449.99
594.294	447.89
594.533	447.17
594.773	445.52
595.012	446.98
595.251	447.97
595.491	452.93
595.73	455.35
595.969	458.68
596.208	460.87
596.447	464.67
596.687	464.06
596.926	462.01
597.165	452.87
597.404	447.61
597.643	436.28
597.882	425.49
598.121	417.7
598.36	408.66
598.599	401.22
598.838	392.97
599.077	381.04
599.316	376.05
599.555	370.21
599.794	365.91
600.033	365.23
600.272	364.57
600.511	360.66
600.75	361.81
600.989	360.2
601.228	357.8
601.466	355.9
601.705	354.88
601.944	351.89
602.183	350.25
602.422	344.3
602.66	340.33
602.899	333.54
603.138	329.56
603.376	320.84
603.615	315.71
603.854	306.55
604.092	301.1
604.331	297.37
604.569	294.83
604.808	289.96
605.047	294.27
605.285	299.44
605.524	306.11
605.762	316.32
606	333.7
606.239	357.63
606.477	386.68
606.716	422.68
606.954	478.16
607.193	554.98
607.431	661.49
607.669	803.07
607.908	976.81
608.146	1171.72
608.384	1375.99
608.622	1577.03
608.861	1766.16
609.099	1941.21
609.337	2105.11
609.575	2250.36
609.813	2387.46
610.052	2508.71
610.29	2611.14
610.528	2704.57
610.766	2791.11
611.004	2866.43
611.242	2935.39
611.48	2996.54
611.718	3050.24
611.956	3099.82
612.194	3144.72
612.432	3180.4
612.67	3211.69
612.908	3238.06
613.146	3251.63
613.384	3259.59
613.621	3257.69
613.859	3249.66
614.097	3226.47
614.335	3186.46
614.573	3124.26
614.811	3027.61
615.048	2893.63
615.286	2730.44
615.524	2543.9
615.761	2343.61
615.999	2150.93
616.237	1967.34
616.474	1798.04
616.712	1641.31
616.95	1500.28
617.187	1368.84
617.425	1254.98
617.662	1153.74
617.9	1060.86
618.137	978.82
618.375	904.61
618.612	836.58
618.85	779.65
619.087	728.27
619.325	679.48
619.562	633.96
619.799	595.59
620.037	561.84
620.274	531.48
620.511	511.21
620.749	489.29
620.986	473.7
621.223	458.94
621.461	450.37
621.698	446.14
621.935	440.21
622.172	436.4
622.409	438.54
622.647	438.16
622.884	438.56
623.121	444.99
623.358	444.6
623.595	447.53
623.832	451.79
624.069	453.14
624.306	456.15
624.543	462.87
624.78	465.86
625.017	468.89
625.254	473.94
625.491	476.97
625.728	481.96
625.965	485.02
626.202	486
626.438	487.57
626.675	490.42
626.912	498.1
627.149	506
627.386	513.65
627.622	523.19
627.859	534.06
628.096	546.53
628.333	558.22
628.569	568.26
628.806	575.79
629.043	577.01
629.279	579.52
629.516	580.33
629.752	571.62
629.989	567.18
630.225	557.95
630.462	547.49
630.699	539.01
630.935	529.09
631.171	514.83
631.408	504
631.644	491.69
631.881	475.94
632.117	462.26
632.354	452.17
632.59	439
632.826	426.61
633.063	412.92
633.299	401.81
633.535	387.49
633.771	372.87
634.008	361.64
634.244	345.45
634.48	325.51
634.716	308
634.953	284.74
635.189	260.82
635.425	236.85
635.661	214.76
635.897	191.52
636.133	171.8
636.369	153.58
636.605	133.55
636.841	119.71
637.077	111.65
637.313	103.14
637.549	95.36
637.785	90.65
638.021	86.4
638.257	80.81
638.493	80.2
638.729	74.44
638.965	76.41
639.2	76.34
639.436	72.55
639.672	71.54
639.908	68.73
640.144	72.02
640.379	74.68
640.615	71.89
640.851	73.43
641.086	72.96
641.322	70.94
641.558	69.9
641.793	70.03
642.029	65.61
642.264	64.8
642.5	64.54
642.736	61.77
642.971	63.19
643.207	61.84
643.442	59.44
643.678	60.91
643.913	63.09
644.148	61.8
644.384	64.56
644.619	63.63
644.855	65.41
645.09	65.15
645.325	64.18
645.561	66.3
645.796	64.23
646.031	69.52
646.266	66.93
646.502	67.88
646.737	73.06
646.972	74.84
647.207	80.24
647.442	81.47
647.678	82.78
647.913	89.42
648.148	94.67
648.383	97.8
648.618	100.71
648.853	105.12
649.088	110.23
649.323	117.97
649.558	121.97
649.793	125.08
650.028	128.72
650.263	125.94
650.498	130.24
650.733	132.97
650.968	132.77
651.202	135.9
651.437	136.66
651.672	133.8
651.907	134.12
652.142	136.79
652.376	139.83
652.611	143.58
652.846	144.09
653.081	144.67
653.315	142.72
653.55	142.82
653.785	140.81
654.019	138.95
654.254	135.11
654.488	131.52
654.723	124.96
654.958	119.19
655.192	113.95
655.427	105.86
655.661	104.42
655.896	102.77
656.13	100.32
656.364	93.34
656.599	85.51
656.833	85.27
657.068	85.49
657.302	82.22
657.536	77.91
657.771	76.48
658.005	75.49
658.239	75.96
658.474	73.29
658.708	74.87
658.942	75.47
659.176	74.81
659.41	72.86
659.645	71.33
659.879	71.28
660.113	69.99
660.347	70.94
660.581	70.91
660.815	71.62
661.049	71.84
661.283	70.93
661.517	69.01
661.751	67.31
661.985	66.27
662.219	67.16
662.453	65.66
662.687	67
662.921	63.02
663.155	61.62
663.389	54.63
663.622	53.73
663.856	56.01
664.09	52.41
664.324	50.85
664.558	51.83
664.791	52.67
665.025	52.69
665.259	52.07
665.492	49.77
665.726	51.6
665.96	48.89
666.193	45.92
666.427	45.52
666.661	43.56
666.894	39.84
667.128	36.49
667.361	35.91
667.595	33.12
667.828	31.88
668.062	28.8
668.295	26.48
668.529	25.55
668.762	26.68
668.995	25.74
669.229	29.02
669.462	29.06
669.695	29.08
669.929	27.36
670.162	27.34
670.395	25.19
670.629	28.55
670.862	30.17
671.095	26.5
671.328	26.5
671.561	23.85
671.795	24.06
672.028	24.71
672.261	23.91
672.494	25.09
672.727	23.71
672.96	24.18
673.193	23.76
673.426	27.13
673.659	27.11
673.892	26.91
674.125	26.89
674.358	27.45
674.591	25.79
674.824	25.66
675.057	24.28
675.29	23.46
675.523	25.83
675.755	24.89
675.988	24.52
676.221	26.42
676.454	24.22
676.687	26.4
676.919	25.99
677.152	26.4
677.385	26.86
677.617	28.04
677.85	27.81
678.083	26.38
678.315	30.78
678.548	29.51
678.78	28.85
679.013	28.87
679.246	29.79
679.478	30.95
679.711	28.4
679.943	30.92
680.175	29.07
680.408	33.17
680.64	30.37
680.873	30.43
681.105	30.88
681.338	34.07
681.57	32.31
681.802	34.3
682.034	34.07
682.267	37.68
682.499	40.62
682.731	37.39
682.964	35.24
683.196	33.72
683.428	32.87
683.66	32.37
683.892	34.29
684.124	36.93
684.356	41.23
684.589	42.93
684.821	43.74
685.053	46.18
685.285	49.41
685.517	51.08
685.749	54.24
685.981	57.58
686.213	59.8
686.445	61.44
686.676	59.32
686.908	61.02
687.14	60.12
687.372	61.01
687.604	56.71
687.836	58.14
688.068	58.1
688.299	57.65
688.531	55.4
688.763	59.74
688.995	57.72
689.226	60.9
689.458	57.59
689.69	54.82
689.921	54.5
690.153	55.53
690.384	58.29
690.616	58.42
690.848	60.65
691.079	57.51
691.311	54.79
691.542	51.95
691.774	48.85
692.005	50.3
692.237	51.6
692.468	46.55
692.699	44.26
692.931	41.57
693.162	37.16
693.393	33.38
693.625	30.29
693.856	30.76
694.087	30.2
694.319	30.18
694.55	28.16
694.781	27.64
695.012	26.12
695.243	23.32
695.475	22.7
695.706	22.42
695.937	22.08
696.168	21.23
696.399	18.49
696.63	18.83
696.861	18.48
697.092	22.36
697.323	25.1
697.554	24.67
697.785	23.7
698.016	23.5
698.247	20.04
698.478	21.17
698.709	19.96
698.94	22.19
699.171	18.92
699.401	14.16
699.632	17.83
699.863	12.96
700.094	13.1
700.325	15.31
700.555	18.42
700.786	20.93
701.017	20.29
701.247	19.27
701.478	20.32
701.709	22.07
701.939	22.41
702.17	26.08
702.401	31.35
702.631	34.9
702.862	35.54
703.092	34.13
703.323	41.96
703.553	48.65
703.784	54.99
704.014	62.4
704.244	65.29
704.475	69.81
704.705	76.56
704.936	83.82
705.166	87.6
705.396	96.94
705.627	104.07
705.857	112.66
706.087	120.49
706.317	128.56
706.548	134.7
706.778	140.82
707.008	148.88
707.238	154.51
707.468	156.84
707.698	157.26
707.928	158.46
708.158	160.67
708.389	164.43
708.619	166.3
708.849	168.96
709.079	175.06
709.309	177.36
709.539	179.32
709.768	182.73
709.998	188.65
710.228	190.98
710.458	188.81
710.688	184.3
710.918	181.08
711.148	175.4
711.378	170.16
711.607	164.66
711.837	159.49
712.067	153.44
712.297	147.25
712.526	142.1
712.756	135.73
712.986	124.46
713.215	113.93
713.445	105.89
713.674	100.38
713.904	92.78
714.134	89.82
714.363	83.23
714.593	78.72
714.822	73.92
715.052	70.8
715.281	68.51
715.511	62.64
715.74	59.12
715.969	52.77
716.199	45.53
716.428	40.23
716.657	33.99
716.887	29.59
717.116	20.86
717.345	18.13
717.575	14.62
717.804	12.11
718.033	7.93
718.262	5.02
718.492	4.23
718.721	2.98
718.95	1.56
719.179	-1.67
719.408	-1.75
719.637	-7.24
719.866	-9
720.095	-7.26
720.324	-6.64
720.553	-11.47
720.782	-13.97
721.011	-14.68
721.24	-17.64
721.469	-18.04
721.698	-17.91
721.927	-16.9
722.156	-18.29
722.385	-19.38
722.613	-15.88
722.842	-14.98
723.071	-10.97
723.3	-8.87
723.529	-9.44
723.757	-8.88
723.986	-12.22
724.215	-12.39
724.443	-11.03
724.672	-9.06
724.901	-8.9
725.129	-6.85
725.358	-2.69
725.586	-4.26
725.815	-4.23
726.043	-5.61
726.272	-4.66
726.5	-4.78
726.729	-2.64
726.957	-6.31
727.186	-7
727.414	-6.23
727.642	-3.76
727.871	-2.24
728.099	-1.56
728.327	-1.48
728.556	0.48
728.784	1.09
729.012	0.04
729.241	2.66
729.469	2.12
729.697	-0.72
729.925	-1.39
730.153	-3.5
730.381	-4.46
730.61	-5.44
730.838	-9.15
731.066	-7.05
731.294	-7.13
731.522	-11.52
731.75	-15.89
731.978	-16.28
732.206	-17.18
732.434	-19.75
732.662	-18.73
732.89	-20.14
733.118	-20.79
733.346	-22.14
733.573	-21.14
733.801	-21.57
734.029	-13.9
734.257	-12.49
734.485	-9.21
734.712	-6.49
734.94	-8
735.168	-6.45
735.396	-5.89
735.623	-6.93
735.851	-5.86
736.078	-5.11
736.306	-5.11
736.534	-4.32
736.761	-1.84
736.989	-2.6
737.216	-3.71
737.444	-6.24
737.671	-4.46
737.899	1.5
738.126	-0.87
738.354	-0.54
738.581	0.48
738.809	1.59
739.036	-0.48
739.263	-0.04
739.491	-2.42
739.718	-1.97
739.945	3.37
740.173	5.69
740.4	6.23
740.627	4.95
740.854	4.74
741.081	0.86
741.309	-1.13
741.536	-4.92
741.763	-6.38
741.99	-4.13
742.217	-3.56
742.444	-3.21
742.671	-2.5
742.898	-3.04
743.125	-5.38
743.352	-8.88
743.579	-8.92
743.806	-10.04
744.033	-7.46
744.26	-5.96
744.487	-5.58
744.714	-5.93
744.941	-6.37
745.167	-1.74
745.394	-1.05
745.621	-0.5
745.848	-1.23
746.075	1.51
746.301	5.05
746.528	10.47
746.755	8.5
746.981	6.41
747.208	7.48
747.435	10.4
747.661	11.33
747.888	13.41
748.114	11.78
748.341	13.98
748.567	16.06
748.794	14.16
749.02	13.15
749.247	10.83
749.473	10.03
749.7	9.97
749.926	9.11
750.152	13.69
750.379	15.19
750.605	15.21
750.831	13.76
751.058	11.35
751.284	9.9
751.51	13.46
751.737	16.01
751.963	13.68
752.189	11.22
752.415	8.93
752.641	8.53
752.867	9.74
753.094	7.59
753.32	5.02
753.546	2.21
753.772	5.02
753.998	3.17
754.224	2.03
754.45	0.14
754.676	-0.34
754.902	-1.59
755.128	-0.28
755.354	-0.65
755.579	-1.13
755.805	0.87
756.031	-0.52
756.257	-2.26
756.483	-4.09
756.709	-6.96
756.934	-6.32
757.16	-8.63
757.386	-8.25
757.612	-10.09
757.837	-10.4
758.063	-8.04
758.289	-5.25
758.514	-7.86
758.74	-12.68
758.965	-15.57
759.191	-12.75
759.416	-11.65
759.642	-10.76
759.868	-10.53
760.093	-8.42
760.318	-10.37
760.544	-10.16
760.769	-10.3
760.995	-9.01
761.22	-9.94
761.445	-7.99
761.671	-5.93
761.896	-2.96
762.121	-4.43
762.347	-4.06
762.572	-6.81
762.797	-7.93
763.022	-6.77
763.248	-0.89
763.473	0.47
763.698	0.65
763.923	1.39
764.148	1.49
764.373	0.32
764.598	1.5
764.823	3.88
765.048	1.87
765.273	-1.8
765.498	-1.6
765.723	-1.47
765.948	1.49
766.173	-0.13
766.398	3.06
766.623	0.39
766.848	0.07
767.073	-1.32
767.298	-0.97
767.522	-0.33
767.747	-0.16
767.972	-0.48
768.197	0.57
768.421	-1.25
768.646	-5.67
768.871	-9.97
769.095	-9.72
769.32	-9.3
769.545	-7.76
769.769	-5.53
769.994	-5.54
770.218	-9.09
770.443	-7.67
770.667	-4.82
770.892	-5.19
771.116	-6.14
771.341	-3.88
771.565	-3.69
771.79	-4.51
772.014	-6.42
772.238	-7.77
772.463	-5.95
772.687	-4.48
772.911	-5.02
773.136	-8.51
773.36	-8.37
773.584	-6.19
773.808	-9
774.033	-9.11
774.257	-10.27
774.481	-11.72
774.705	-13.07
774.929	-13.72
775.153	-14.49
775.377	-12.67
775.602	-12.27
775.826	-9.89
776.05	-7.49
776.274	-7.96
776.498	-7.62
776.722	-9.04
776.945	-7.37
777.169	-7.65
777.393	-9.55
777.617	-11.66
777.841	-11.45
778.065	-10.1
778.289	-11.89
778.512	-13.48
778.736	-12.93
778.96	-12.31
779.184	-7.44
779.407	-7.23
779.631	-7.93
779.855	-9.41
780.078	-6.79
780.302	-9.48
780.526	-11.5
780.749	-9.77
780.973	-7.77
781.196	-5.9
781.42	-8.27
781.643	-7.33
781.867	-6.5
782.09	-9.24
782.314	-9.8
782.537	-9.16
782.76	-10.83
782.984	-9.41
783.207	-11.68
783.431	-12.57
783.654	-12.54
783.877	-14.75
784.1	-15.62
784.324	-15.28
784.547	-15.05
784.77	-19.22
784.993	-20.3
785.216	-20.82
785.44	-19.5
785.663	-22.03
785.886	-19.55
786.109	-22.2
786.332	-24.53
786.555	-23.03
786.778	-20.61
787.001	-21.26
787.224	-17.98
787.447	-15.97
787.67	-14.67
787.893	-14.22
788.116	-15.07
788.339	-12.27
788.561	-13.48
788.784	-17.58
789.007	-18.25
789.23	-20.49
789.453	-20.67
789.675	-21.91
789.898	-25.84
790.121	-26.76
790.344	-27.26
790.566	-27.31
790.789	-26.89
791.012	-26.08
791.234	-23.92
791.457	-21.21
791.679	-19.13
791.902	-17.92
792.124	-17.24
792.347	-17.7
792.569	-15.94
792.792	-19.7
793.014	-15.92
793.237	-12.21
793.459	-12.08
793.681	-11.73
793.904	-11.78
794.126	-16.2
794.348	-17.72
794.571	-15.89
794.793	-17.31
795.015	-16.41
795.237	-17.06
795.46	-15.03
795.682	-13.77
795.904	-10.34
796.126	-11.16
796.348	-11.53
796.57	-7.86
796.792	-5.53
797.014	-0.52
797.237	2.1
797.459	3.04
797.681	4.26
797.903	2.98
798.124	3.32
798.346	15.48
798.568	17.71
798.79	20.99
799.012	22.89
799.234	23.81
799.456	24.72
799.678	28.16
799.899	24.51
800.121	19.98
800.343	17.77
800.565	17.64
800.786	17.51
801.008	19.61
801.23	19.77
801.451	18.97
801.673	16.35
801.895	15.32
802.116	17.55
802.338	16.7
802.559	16.78
802.781	14.43
803.002	18.29
803.224	19.72
803.445	18.64
803.667	19.27
803.888	16.77
804.109	16.25
804.331	15.76
804.552	15.15
804.773	16.26
804.995	13.56
805.216	-1.31
805.437	-3.82
805.658	-8.39
805.88	-10.99
806.101	-11.75
806.322	-11.65
806.543	-13.56
806.764	-14.89
806.985	-12.22
807.207	-10.9
807.428	-12.31
807.649	-14.63
807.87	-14.88
808.091	-13.45
808.312	-13.38
808.533	-7.83
808.754	-4.39
808.975	-6.74
809.195	-4.83
809.416	-4.32
809.637	-3.87
809.858	-6.9
810.079	-7.99
810.3	-6.85
810.52	-7.57
810.741	-10.26
810.962	-11.74
811.183	-11.91
811.403	-12.01
811.624	-12.24
811.845	-10.58
812.065	-9.39
812.286	-8.97
812.506	-6.67
812.727	-5.99
812.948	-3.05
813.168	-1.46
813.389	-2.28
813.609	-0.34
813.83	-0.56
814.05	-0.16
814.27	0.67
814.491	3.91
814.711	2.65
814.931	-1.77
815.152	-2.93
815.372	-5.54
815.592	-7.6
815.813	-8.36
816.033	-9.94
816.253	-9.5
816.473	-10.8
816.694	-8.97
816.914	-8.56
817.134	-9.3
817.354	-11.49
817.574	-10.94
817.794	-11.56
818.014	-11.61
818.234	-11.53
818.454	-13.81
818.674	-15.59
818.894	-18.61
819.114	-15.25
819.334	-16.43
819.554	-13.34
819.774	-11.01
819.994	-14.26
820.214	-13.68
820.433	-12.26
820.653	-13.25
820.873	-12.17
821.093	-11.78
821.312	-14.11
821.532	-11.44
821.752	-7.28
821.972	-7.01
822.191	-5.22
822.411	-6.55
822.63	-5.62
822.85	-4.33
823.07	-5.44
823.289	-4.32
823.509	-6.77
823.728	-3.47
823.948	-5.31
824.167	-5.46
824.387	-4.65
824.606	-2.67
824.825	-4.5
825.045	-4.87
825.264	-4.12
825.483	-2.61
825.703	0.21
825.922	-1.99
826.141	-3.61
826.361	-5.31
826.58	-10.09
826.799	-10.7
827.018	-10.04
827.237	-11.45
827.456	-9.59
827.676	-9.52
827.895	-9.35
828.114	-7.26
828.333	-7.41
828.552	-8.25
828.771	-8.25
828.99	-10.78
829.209	-9.6
829.428	-7.41
829.647	-8.23
829.866	-7.34
830.084	-7.39
830.303	-7.37
830.522	-9.05
830.741	-8.7
830.96	-7.7
831.179	-7.52
831.397	-9.92
831.616	-8.62
831.835	-8.63
832.053	-8.61
832.272	-8.06
832.491	-6.91
832.709	-8.32
832.928	-6.39
833.147	-6.22
833.365	-5.53
833.584	-2.96
833.802	-1.55
834.021	-1.03
834.239	0.04
834.458	-2.26
834.676	-6.57
834.894	-8.56
835.113	-10.17
835.331	-9.27
835.55	-9.4
835.768	-8.01
835.986	-7.49
836.204	-10.55
836.423	-10.38
836.641	-11.64
836.859	-13.54
837.077	-12.65
837.296	-11.66
837.514	-13.26
837.732	-14.13
837.95	-16.45
838.168	-12.17
838.386	-13.3
838.604	-11.27
838.822	-9.54
839.04	-10.47
839.258	-9.77
839.476	-8.15
839.694	-9.58
839.912	-10.54
840.13	-11.24
840.348	-8.81
840.566	-11.38
840.783	-10.12
841.001	-12.41
841.219	-9.51
841.437	-7.33
841.655	-6.16
841.872	-6.32
842.09	-7.29
842.308	-6.31
842.525	-7.35
842.743	-5.7
842.961	-4.96
843.178	-6.65
843.396	-3.06
843.613	-0.61
843.831	0.6
844.048	-0.76
844.266	0.99
844.483	0.84
844.701	1.21
844.918	1.22
845.136	0.24
845.353	-2.7
845.57	-2.87
845.788	0.13
846.005	-2.53
846.222	-4.46
846.439	-2.68
846.657	-3.61
846.874	-3.66
847.091	-6.22
847.308	-4.36
847.526	-6.22
847.743	-5.79
847.96	-8.72
848.177	-8.32
848.394	-9.25
848.611	-9.91
848.828	-10.62
849.045	-12.28
849.262	-12.13
849.479	-14.6
849.696	-16.13
849.913	-17.42
850.13	-21.57
850.347	-19.6
850.564	-20.65
850.78	-21.9
850.997	-22.86
851.214	-23.09
851.431	-22.85
851.647	-26.71
851.864	-24.66
852.081	-22.4
852.298	-24.72
852.514	-26.21
852.731	-25.52
852.948	-22.98
853.164	-22.75
853.381	-21.97
853.597	-22.2
853.814	-25.24
854.03	-28.93
854.247	-27.05
854.463	-27.8
854.68	-27.23
854.896	-25.76
855.113	-25.14
855.329	-23.42
855.545	-21.29
855.762	-21.71
855.978	-24.33
856.194	-25.69
856.411	-22.23
856.627	-18.28
856.843	-17.48
857.059	-14.88
857.275	-15.16
857.492	-16.14
857.708	-13.25
857.924	-10.53
858.14	-7.02
858.356	-8.1
858.572	-9.31
858.788	-11.31
859.004	-9.57
859.22	-12.23
859.436	-11.84
859.652	-13.99
859.868	-15.52
860.084	-17.29
860.3	-16.88
860.516	-14.5
860.731	-13.01
860.947	-15.48
861.163	-13.56
861.379	-13.57
861.595	-12.39
861.81	-10.69
862.026	-10.92
862.242	-11.25
862.457	-10.89
862.673	-8.66
862.889	-7.61
863.104	-7.71
863.32	-9.04
863.535	-8.19
863.751	-13.7
863.966	-9.85
864.182	-7.4
864.397	-8.46
864.613	-11.29
864.828	-13.64
865.044	-11.45
865.259	-9.04
865.474	-8.77
865.69	-8.02
865.905	-6.2
866.12	-8.11
866.336	-7.74
866.551	-5.42
866.766	-4.61
866.981	-6.14
867.196	-6.37
867.412	-6.22
867.627	-5.94
867.842	-6.06
868.057	-5.18
868.272	-7.03
868.487	-9.05
868.702	-10.78
868.917	-12.14
869.132	-10.07
869.347	-8.91
869.562	-10.71
869.777	-11.89
869.992	-12.85
870.207	-12.94
870.422	-13.42
870.636	-16.49
870.851	-16.84
871.066	-20.59
871.281	-18.6
871.495	-19.55
871.71	-16.7
871.925	-19.49
872.14	-19.83
872.354	-21.87
872.569	-22.35
872.783	-20.56
872.998	-20.5
873.213	-22.12
873.427	-18.87
873.642	-17.69
873.856	-18.88
874.071	-19.34
874.285	-20.87
874.5	-23.49
874.714	-24.85
874.928	-25.23
875.143	-25.25
875.357	-24.47
875.571	-25.02
875.786	-25.58
876	-24.7
876.214	-22.31
876.429	-23.5
876.643	-22.35
876.857	-21.09
877.071	-19.16
877.285	-20.7
877.499	-23.9
877.714	-20.45
877.928	-20.11
878.142	-20.57
878.356	-22.71
878.57	-21.32
878.784	-19.49
878.998	-19.71
879.212	-17.62
879.426	-19.34
879.639	-16.61
879.853	-18.65
880.067	-20.4
880.281	-20.76
880.495	-18.17
880.709	-14.9
880.922	-13.99
881.136	-12.57
881.35	-11.18
881.564	-11.07
881.777	-13.03
881.991	-12.52
882.205	-9.61
882.418	-9.76
882.632	-11.75
882.845	-12.56
883.059	-12.33
883.273	-12.65
883.486	-13.08
883.7	-9.3
883.913	-8.39
884.126	-7.06
884.34	-10.28
884.553	-12.85
884.767	-8.55
884.98	-8.85
885.193	-9.52
885.407	-11.21
885.62	-9.08
885.833	-10.45
886.046	-10.11
886.26	-13.31
886.473	-12.31
886.686	-12.99
886.899	-12.44
887.112	-13.6
887.326	-16.19
887.539	-13.99
887.752	-12.67
887.965	-14.62
888.178	-13.5
888.391	-12.73
888.604	-13.02
888.817	-14.17
889.03	-13.53
889.243	-15.19
889.455	-17.61
889.668	-16.88
889.881	-15.1
890.094	-16.63
890.307	-21.72
890.52	-20.92
890.732	-19.46
890.945	-19.63
891.158	-18.2
891.37	-22.05
891.583	-21.63
891.796	-19.85
892.008	-22.15
892.221	-23.94
892.434	-27.37
892.646	-26.95
892.859	-27.57
893.071	-26.07
893.284	-22.76
893.496	-23.14
893.709	-24.55
893.921	-23.43
894.133	-24.06
894.346	-24.76
894.558	-24.22
894.771	-24.8
894.983	-21.98
895.195	-21.3
895.407	-21.69
895.62	-24.28
895.832	-22.09
896.044	-18.44
896.256	-18.1
896.468	-19.99
896.681	-18.17
896.893	-17.07
897.105	-16.93
897.317	-18.75
897.529	-15.97
897.741	-14.05
897.953	-11.57
898.165	-14.85
898.377	-17.18
898.589	-13.8
898.801	-13.36
899.013	-10.07
899.224	-7.59
899.436	-3.53
899.648	-4.72
899.86	-6.89
900.072	-3.05
900.283	-0.22
900.495	0.81
900.707	1.47
900.919	-1.41
901.13	-1.19
901.342	-2.95
901.554	-4.05
901.765	-4.24
901.977	-5.81
902.188	-6.33
902.4	-6.88
902.611	-8.09
902.823	-9.68
903.034	-11.81
903.246	-13.37
903.457	-13.88
903.669	-15.63
903.88	-14.98
904.091	-15.14
904.303	-15.81
904.514	-16.98
904.725	-14.11
904.936	-12.56
905.148	-12.57
905.359	-10.24
905.57	-11.76
905.781	-13.47
905.992	-15.43
906.204	-14
906.415	-13.61
906.626	-16.67
906.837	-15.37
907.048	-16.65
907.259	-18.19
907.47	-19.24
907.681	-19.33
907.892	-16.58
908.103	-17.24
908.314	-18.81
908.525	-18.09
908.735	-16.63
908.946	-18.34
909.157	-19.19
909.368	-17.1
909.579	-15.15
909.789	-16.57
910	-17.5
910.211	-14.63
910.421	-15.19
910.632	-13.76
910.843	-16.41
911.053	-12.91
911.264	-11.12
911.475	-11.76
911.685	-11.47
911.896	-11.93
912.106	-10.46
912.317	-12.6
912.527	-11.1
912.737	-12.06
912.948	-13.45
913.158	-12.99
913.369	-15.85
913.579	-12.75
913.789	-12.42
914	-6.98
914.21	-7.43
914.42	-7.99
914.63	-7.76
914.841	-6.01
915.051	-3.63
915.261	-3.89
915.471	-0.89
915.681	0.1
915.891	-0.27
916.101	-2.26
916.311	-1.76
916.521	-0.51
916.731	-0.65
916.941	2.84
917.151	0.87
917.361	3.78
917.571	-0.59
917.781	-1.94
917.991	-5.09
918.201	-5.1
918.411	-8.13
918.621	-8.81
918.83	-8.2
919.04	-9.87
919.25	-6.92
919.46	-4.29
919.669	-5.81
919.879	-5.78
920.089	-9.35
920.298	-9.72
920.508	-10.58
920.717	-8.78
920.927	-10.04
921.136	-9.77
921.346	-11.35
921.555	-14.77
921.765	-14.54
921.974	-16.82
922.184	-19.3
922.393	-20.23
922.603	-21.03
922.812	-17.94
923.021	-18.67
923.23	-20.32
923.44	-23.2
923.649	-22.95
923.858	-24.19
924.067	-23.27
924.277	-24.98
924.486	-20.16
924.695	-20.76
924.904	-17.08
925.113	-16.73
925.322	-14.64
925.531	-15.02
925.74	-18.58
925.949	-20.43
926.158	-17.91
926.367	-18.26
926.576	-17
926.785	-18.22
926.994	-19.39
927.203	-18.72
927.412	-19.49
927.621	-20.42
927.83	-18.01
928.038	-18.21
928.247	-19.25
928.456	-18.45
928.665	-17.61
928.873	-16.06
929.082	-13.63
929.291	-13.31
929.499	-11.05
929.708	-12.96
929.916	-12.56
930.125	-13.81
930.333	-15.05
930.542	-12.73
930.75	-9.5
930.959	-9.78
931.167	-10.59
931.376	-12.86
931.584	-11.57
931.793	-10.8
932.001	-10.98
932.209	-12.42
932.418	-14.23
932.626	-17.78
932.834	-20.14
933.042	-22.76
933.251	-22.11
933.459	-23.59
933.667	-25.01
933.875	-24.97
934.083	-23.24
934.291	-22.81
934.499	-20.05
934.707	-19.56
934.915	-18.97
935.123	-17.78
935.331	-18.05
935.539	-19.68
935.747	-22.51
935.955	-23.94
936.163	-22.52
936.371	-22.9
936.579	-20.42
936.787	-19.87
936.995	-22.44
937.202	-26.07
937.41	-26.12
937.618	-26.26
937.826	-24.45
938.033	-29.91
938.241	-33.01
938.449	-31.09
938.656	-28.87
938.864	-28.1
939.071	-25.59
939.279	-22.22
939.486	-19.48
939.694	-19.97
939.901	-20.57
940.109	-19.44
940.316	-18.09
940.524	-18
940.731	-20.39
940.939	-20.4
941.146	-20.43
941.353	-22.67
941.561	-21.69
941.768	-22.56
941.975	-21.74
942.182	-22.54
942.39	-21.83
942.597	-17.29
942.804	-16.86
943.011	-18.46
943.218	-17.86
943.425	-17.77
943.632	-16.01
943.839	-17.7
944.046	-17.66
944.253	-17.6
944.46	-16.66
944.667	-10.76
944.874	-11.91
945.081	-9.57
945.288	-9.11
945.495	-8.79
945.702	-8.8
945.909	-11.3
946.115	-8.92
946.322	-10.73
946.529	-13.13
946.736	-12.83
946.942	-13
947.149	-12.57
947.356	-14.11
947.562	-15.31
947.769	-14.3
947.976	-15.43
948.182	-14.75
948.389	-15.21
948.595	-13.68
948.802	-13.08
949.008	-16.32
949.215	-15.6
949.421	-16.09
949.628	-16.97
949.834	-16.6
950.04	-16.39
950.247	-13.09
950.453	-11.96
950.659	-13.79
950.865	-10.97
951.072	-17.79
951.278	-15.02
951.484	-17.89
951.69	-20.08
951.896	-21.47
952.103	-21.35
952.309	-18.87
952.515	-20.54
952.721	-17.33
952.927	-16.11
953.133	-17.51
953.339	-18.16
953.545	-20.13
953.751	-20.08
953.957	-17.41
954.163	-18.48
954.369	-18.04
954.574	-20.27
954.78	-19.73
954.986	-19.45
955.192	-17.61
955.398	-18.96
955.603	-21.69
955.809	-20.05
956.015	-19.16
956.22	-17.91
956.426	-18.47
956.632	-21.6
956.837	-21.65
957.043	-21.48
957.248	-20.79
957.454	-19.81
957.66	-23
957.865	-23.15
958.07	-21.45
958.276	-21.81
958.481	-24.04
958.687	-26
958.892	-25.49
959.097	-24.73
959.303	-25.15
959.508	-25.81
959.713	-26.22
959.919	-23.97
960.124	-23.29
960.329	-23.3
960.534	-20.44
960.739	-19.42
960.945	-16.2
961.15	-15.97
961.355	-17.56
961.56	-22.09
961.765	-23.3
961.97	-23.03
962.175	-21.21
962.38	-23.68
962.585	-23.85
962.79	-24.32
962.995	-25.68
963.2	-27.66
963.404	-28.24
963.609	-30.86
963.814	-31.63
964.019	-33.7
964.224	-34.38
964.428	-32.73
964.633	-32.41
964.838	-31.03
965.042	-29.86
965.247	-32.41
965.452	-32.82
965.656	-30.43
965.861	-28.76
966.066	-30.25
966.27	-29.18
966.475	-25.96
966.679	-29.56
966.884	-29.37
967.088	-31.96
967.292	-34.48
967.497	-33.62
967.701	-33.31
967.906	-31.91
968.11	-27.5
968.314	-23.01
968.518	-24.69
968.723	-22.24
968.927	-20.84
969.131	-19.7
969.335	-15.37
969.539	-15.12
969.744	-13.77
969.948	-10.87
970.152	-8.35
970.356	-6.6
970.56	-5.36
970.764	-6.27
970.968	-3.48
971.172	-2.87
971.376	-2.83
971.58	-0.3
971.784	-0.29
971.988	-2.11
972.192	1.13
972.395	2.15
972.599	-0.9
972.803	-2.36
973.007	-0.43
973.21	-0.72
973.414	-2.05
973.618	-1.88
973.822	-3.28
974.025	-3.44
974.229	-3.67
974.432	-9.04
974.636	-11.7
974.84	-10.34
975.043	-9.8
975.247	-13.61
975.45	-15.21
975.654	-16.26
975.857	-14.49
976.06	-14.84
976.264	-16.26
976.467	-15.5
976.671	-15.07
976.874	-14.6
977.077	-15.97
977.28	-16.92
977.484	-19.63
977.687	-20.44
977.89	-18.77
978.093	-18.75
978.297	-18.02
978.5	-21.49
978.703	-21.72
978.906	-20.79
979.109	-21.01
979.312	-19.16
979.515	-20.14
979.718	-19.37
979.921	-18.85
980.124	-20.57
980.327	-21.73
980.53	-21.18
980.733	-18.54
980.936	-16.72
981.138	-18.59
981.341	-18.09
981.544	-17.12
981.747	-17.48
981.949	-18.65
982.152	-16.99
982.355	-18.1
982.558	-15.19
982.76	-15.94
982.963	-17.94
983.165	-18.42
983.368	-17.49
983.571	-18.6
983.773	-14.38
983.976	-13.47
984.178	-14.57
984.381	-15.1
984.583	-17.66
984.785	-18.17
984.988	-15.44
985.19	-13.05
985.392	-15.32
985.595	-18.46
985.797	-18.47
985.999	-14.57
986.202	-12
986.404	-11.25
986.606	-6.79
986.808	-8.48
987.01	-6.59
987.212	-7.42
987.415	-8.72
987.617	-9.32
987.819	-8.85
988.021	-8.4
988.223	-10.95
988.425	-12.58
988.627	-12.45
988.829	-16.53
989.031	-16.39
989.232	-15.06
989.434	-14.56
989.636	-14.68
989.838	-14.58
990.04	-13.39
990.242	-14.57
990.443	-14.67
990.645	-12.47
990.847	-10.06
991.048	-8.54
991.25	-9.52
991.452	-10.76
991.653	-11.12
991.855	-10.63
992.057	-10.72
992.258	-11.19
992.46	-12.36
992.661	-11.21
992.863	-13.52
993.064	-11.14
993.265	-12.06
993.467	-14.91
993.668	-11.46
993.87	-12.25
994.071	-12.76
994.272	-12.18
994.473	-9.25
994.675	-8.63
994.876	-7.16
995.077	-6.32
995.278	-6.06
995.48	-6.84
995.681	-8
995.882	-6.07
996.083	-6.48
996.284	-11.28
996.485	-12.1
996.686	-14.17
996.887	-16.31
997.088	-19.34
997.289	-21.12
997.49	-20.99
997.691	-21.79
997.892	-21.38
998.092	-16.82
998.293	-17.15
998.494	-17.09
998.695	-17.57
998.896	-16.13
999.096	-16.49
999.297	-17.68
999.498	-20.18
999.698	-20.82
999.899	-25.53
1000.1	-27.21
1000.3	-27.06
1000.501	-27.37
1000.701	-28.38
1000.902	-29.21
1001.102	-29.49
1001.303	-28.51
1001.503	-31.42
1001.704	-30.74
1001.904	-30.95
1002.105	-32.05
1002.305	-31.72
1002.505	-32.14
1002.706	-31.24
1002.906	-31.02
1003.106	-31.17
1003.306	-28.93
1003.507	-26.95
1003.707	-27.66
1003.907	-24.09
1004.107	-22.98
1004.307	-26.05
1004.507	-23.8
1004.707	-24.85
1004.907	-26.67
1005.107	-28.29
1005.308	-28.14
1005.507	-29.63
1005.707	-26.27
1005.907	-25.34
1006.107	-21.46
1006.307	-19.85
1006.507	-19.9
1006.707	-18.17
1006.907	-16.65
1007.106	-17.27
1007.306	-18.18
1007.506	-17.68
1007.706	-16.75
1007.905	-18.07
1008.105	-18.7
1008.305	-18.52
1008.504	-16.81
1008.704	-12.61
1008.903	-11.83
1009.103	-8.63
1009.303	-10.87
1009.502	-12.22
1009.702	-13.7
1009.901	-14.11
1010.1	-17.81
1010.3	-16.09
1010.499	-17.64
1010.699	-19.57
1010.898	-20.23
1011.097	-19.84
1011.296	-19.3
1011.496	-19.15
1011.695	-17.99
1011.894	-18.98
1012.093	-16.05
1012.293	-16.17
1012.492	-16.17
1012.691	-16.5
1012.89	-18.05
1013.089	-22.5
1013.288	-22.29
1013.487	-21.92
1013.686	-21.51
1013.885	-22.86
1014.084	-22.03
1014.283	-21.62
1014.482	-22.57
1014.681	-24.21
1014.88	-28.25
1015.078	-27.28
1015.277	-30.94
1015.476	-31.43
1015.675	-31.19
1015.873	-30.27
1016.072	-32.71
1016.271	-29.38
1016.47	-33.39
1016.668	-32.02
1016.867	-33.4
1017.065	-36.12
1017.264	-36.2
1017.463	-35.99
1017.661	-36.45
1017.86	-36.21
1018.058	-36.51
1018.256	-37.81
1018.455	-40.77
1018.653	-40.04
1018.852	-39.09
1019.05	-40.05
1019.248	-39.27
1019.447	-39.61
1019.645	-39.39
1019.843	-41.79
1020.041	-38.64
1020.24	-39.01
1020.438	-35.14
1020.636	-35.54
1020.834	-37.18
1021.032	-34.32
1021.23	-36.04
1021.428	-33.27
1021.626	-27.07
1021.824	-26.16
1022.022	-27.51
1022.22	-25.3
1022.418	-25.9
1022.616	-26.35
1022.814	-26.16
1023.012	-26.17
1023.21	-22.92
1023.408	-23.16
1023.606	-24.06
1023.803	-18.11
1024.001	-18.27
1024.199	-20.95
1024.397	-19.51
1024.594	-18.77
1024.792	-21.57
1024.99	-21.35
1025.187	-21.66
1025.385	-17.07
1025.582	-17.15
1025.78	-17.08
1025.977	-16.09
1026.175	-17.36
1026.372	-16.45
1026.57	-19.71
1026.767	-17.1
1026.965	-16
1027.162	-16.93
1027.359	-18.61
1027.557	-19.12
1027.754	-24.28
1027.951	-25.83
1028.148	-23.35
1028.346	-24.65
1028.543	-27.99
1028.74	-27.95
1028.937	-30.51
1029.134	-30.25
1029.331	-32.21
1029.528	-32.66
1029.725	-32.03
1029.923	-36.52
1030.12	-33.04
1030.317	-32.02
1030.513	-31.13
1030.71	-28.48
1030.907	-25.71
1031.104	-26.27
1031.301	-26.69
1031.498	-27.79
1031.695	-27.51
1031.892	-28.25
1032.088	-28.94
1032.285	-29.52
1032.482	-30.49
1032.678	-32.18
1032.875	-35.82
1033.072	-35.84
1033.268	-34.7
1033.465	-32.89
1033.662	-34.47
1033.858	-34
1034.055	-32.38
1034.251	-31.2
1034.448	-32.13
1034.644	-29.89
1034.84	-26.76
1035.037	-24.41
1035.233	-23.96
1035.43	-21.08
1035.626	-21.42
1035.822	-21.83
1036.019	-22.34
1036.215	-26.19
1036.411	-26.89
1036.607	-29.05
1036.803	-32.3
1037	-31.96
1037.196	-33.56
1037.392	-34.12
1037.588	-36.23
1037.784	-34.71
1037.98	-35.61
1038.176	-34.9
1038.372	-34.55
1038.568	-32.67
1038.764	-30.61
1038.96	-27.8
1039.156	-28.87
1039.352	-29.95
1039.547	-28.61
1039.743	-27.68
1039.939	-25.73
1040.135	-26.76
1040.331	-29.13
1040.526	-25.9
1040.722	-27.2
1040.918	-29.05
1041.113	-31.73
1041.309	-32.14
1041.505	-34.34
1041.7	-32.49
1041.896	-31.88
1042.091	-32.16
1042.287	-31.2
1042.482	-29.26
1042.678	-29.84
1042.873	-28.75
1043.069	-30.13
1043.264	-28.61
1043.459	-26.63
1043.655	-25.08
1043.85	-26.53
1044.045	-24.54
1044.24	-24.76
1044.436	-24.11
1044.631	-25.36
1044.826	-26.1
1045.021	-28.52
1045.216	-26.94
