Data from FLMT021711__23__18-15-55-687.txt Node

Date: Tue Nov 05 18:15:55 CET 2024
User: Etudiants TP
Spectrometer: FLMT02171
Trigger mode: 0
Integration Time (sec): 1.000000E-1
Scans to average: 5
Electric dark correction enabled: true
Nonlinearity correction enabled: false
Boxcar width: 15
XAxis mode: Wavelengths
Number of Pixels in Spectrum: 3648
>>>>>Begin Spectral Data<<<<<
194.658	-71.35
194.923	-67.63
195.188	-60.31
195.453	-59.98
195.717	-52.47
195.982	-51.59
196.247	-49.3
196.512	-51.56
196.777	-48.77
197.042	-46.56
197.307	-46.66
197.572	-42.47
197.837	-43.48
198.101	-40.3
198.366	-37.25
198.631	-35.33
198.896	-28.35
199.161	-20.35
199.425	-12.66
199.69	-2.43
199.955	-3
200.22	-7.46
200.484	-8.75
200.749	-9.38
201.014	-7.44
201.278	-6.69
201.543	-3.82
201.807	-5.71
202.072	-5.28
202.337	-5.03
202.601	-5.11
202.866	-7.12
203.13	-4.65
203.395	-7.54
203.659	-7.54
203.924	-9.98
204.189	-8.43
204.453	-8.56
204.717	-5.74
204.982	-5.87
205.246	-4.88
205.511	-1.89
205.775	-2.47
206.04	3.85
206.304	3.94
206.568	5.43
206.833	6.48
207.097	8.19
207.361	10.08
207.626	14.58
207.89	15.3
208.154	16.69
208.419	19.81
208.683	21.09
208.947	23.83
209.211	22.81
209.476	22.96
209.74	22.05
210.004	23.93
210.268	24.36
210.532	28.03
210.796	28.96
211.061	30.87
211.325	29.92
211.589	28.8
211.853	30.27
212.117	30.06
212.381	30.87
212.645	31.85
212.909	30.96
213.173	28.73
213.437	29.24
213.701	28.2
213.965	29.55
214.229	24.89
214.493	24.62
214.757	22.93
215.021	22.35
215.285	26.26
215.549	28.18
215.813	24.45
216.077	23.56
216.34	24.94
216.604	22.64
216.868	22.05
217.132	22.62
217.396	21.8
217.659	21.83
217.923	18.27
218.187	17.25
218.451	16.75
218.714	12.48
218.978	12.07
219.242	13.5
219.505	13.51
219.769	15.24
220.033	14.55
220.296	15.05
220.56	15.49
220.824	12.84
221.087	13.52
221.351	13.65
221.614	12.76
221.878	14.04
222.142	11.28
222.405	10.36
222.669	12.05
222.932	8.23
223.196	5.18
223.459	0.61
223.722	1.65
223.986	2.15
224.249	1.28
224.513	1.02
224.776	2.15
225.04	4.08
225.303	2.89
225.566	3.15
225.83	5.28
226.093	8.03
226.356	5.77
226.62	2.98
226.883	5.1
227.146	5.53
227.409	4.72
227.673	2.08
227.936	0.4
228.199	0.88
228.462	-0.23
228.725	-2.1
228.989	-1.29
229.252	0.17
229.515	6.55
229.778	5.45
230.041	4.47
230.304	3.44
230.567	6.06
230.83	3.94
231.093	7.07
231.356	7.06
231.619	14.17
231.882	11.76
232.145	14.46
232.408	13.49
232.671	11.94
232.934	11.64
233.197	8.64
233.46	8.5
233.723	11.11
233.986	10.78
234.249	7.78
234.512	10.62
234.775	15.12
235.037	15.17
235.3	14.92
235.563	13.71
235.826	15.36
236.089	18.86
236.351	18.33
236.614	20.29
236.877	21.42
237.14	24.08
237.402	23.69
237.665	15.64
237.928	15.7
238.19	13.83
238.453	17.02
238.716	15.92
238.978	15.93
239.241	14.39
239.503	17.64
239.766	12.89
240.029	10.76
240.291	11.37
240.554	11.37
240.816	11.73
241.079	11.9
241.341	12.2
241.604	11.17
241.866	6.56
242.129	6
242.391	9.24
242.653	7.2
242.916	8.06
243.178	7.16
243.441	7.8
243.703	8.49
243.965	7.24
244.228	6.72
244.49	6.55
244.752	7.06
245.015	7.11
245.277	8.21
245.539	6.39
245.801	8.95
246.064	7.78
246.326	6.83
246.588	5.23
246.85	7.16
247.112	7.57
247.374	9.75
247.637	12.47
247.899	11.56
248.161	12.15
248.423	8.12
248.685	8.35
248.947	7.63
249.209	7.91
249.471	9.26
249.733	8.97
249.995	9.22
250.257	8.72
250.519	6.72
250.781	9.82
251.043	6.26
251.305	8.56
251.567	11.01
251.829	11.7
252.091	10.56
252.353	6.82
252.615	7.41
252.876	6.23
253.138	5.61
253.4	2.09
253.662	4.06
253.924	6.61
254.185	8.78
254.447	9.32
254.709	10.3
254.971	10.76
255.232	11.83
255.494	10.28
255.756	6.04
256.017	7.41
256.279	9.52
256.541	9.88
256.802	10.82
257.064	11.19
257.326	10.92
257.587	11.69
257.849	13.89
258.11	16.75
258.372	18.2
258.633	19.12
258.895	17.96
259.156	17.88
259.418	15.7
259.679	8.94
259.941	6.73
260.202	9.97
260.464	12.08
260.725	11.48
260.987	10.88
261.248	9.97
261.509	10.1
261.771	8.36
262.032	9.21
262.293	8.38
262.555	9.18
262.816	6.34
263.077	4.66
263.338	1.93
263.6	1.23
263.861	1.23
264.122	-0.52
264.383	0.43
264.645	1.71
264.906	0.01
265.167	2.58
265.428	0.4
265.689	1.3
265.95	-0.17
266.211	0.32
266.473	-0.77
266.734	-4.06
266.995	-6.71
267.256	-6.83
267.517	-4.92
267.778	-0.06
268.039	0.34
268.3	-1.63
268.561	-3.1
268.822	0.33
269.083	-2.44
269.344	-4.63
269.604	-5.01
269.865	-4.76
270.126	-8.25
270.387	-8.08
270.648	-6.91
270.909	-6.58
271.17	-8.87
271.43	-11.38
271.691	-13.88
271.952	-14.63
272.213	-11.94
272.473	-14.01
272.734	-13.05
272.995	-11.83
273.256	-12.15
273.516	-8.44
273.777	-10.84
274.038	-9.81
274.298	-12.48
274.559	-13.02
274.82	-7.35
275.08	-4.27
275.341	-1.45
275.601	-2.66
275.862	-5.32
276.122	-3.5
276.383	-3.01
276.643	-1.07
276.904	-3.67
277.164	1.28
277.425	2.48
277.685	7.3
277.946	8.34
278.206	9.4
278.467	11.56
278.727	11.12
278.987	10.7
279.248	11.05
279.508	14.39
279.768	18.11
280.029	19.18
280.289	14.65
280.549	13.7
280.81	13.67
281.07	12.73
281.33	13.48
281.59	11.05
281.851	13.25
282.111	12.21
282.371	11.71
282.631	13.16
282.891	11.64
283.151	10.43
283.412	6.42
283.672	6.31
283.932	7.04
284.192	8.59
284.452	7.31
284.712	5.35
284.972	4.29
285.232	0.78
285.492	3.36
285.752	-0.88
286.012	5.03
286.272	7.33
286.532	5.15
286.792	6.25
287.052	8.17
287.312	9.76
287.571	8.08
287.831	8.98
288.091	6.43
288.351	7.54
288.611	11.02
288.871	10.24
289.13	11.02
289.39	7.14
289.65	7.76
289.91	5.02
290.17	8.69
290.429	11.91
290.689	8.98
290.949	5.26
291.208	5.48
291.468	10.17
291.728	11.97
291.987	14.9
292.247	12.25
292.506	14.95
292.766	17.54
293.026	17.04
293.285	18.8
293.545	20.12
293.804	20.69
294.064	16.99
294.323	13.6
294.583	13.25
294.842	12.02
295.102	11.98
295.361	11.28
295.621	11.81
295.88	12.5
296.139	13.23
296.399	14.37
296.658	10.31
296.917	9.49
297.177	5.4
297.436	6.37
297.695	5.22
297.955	7.47
298.214	4.13
298.473	5.58
298.732	9.18
298.992	13.16
299.251	12.94
299.51	8.2
299.769	8.1
300.028	6.83
300.287	7.72
300.547	8.12
300.806	6.23
301.065	9.69
301.324	10.7
301.583	6.81
301.842	4.12
302.101	1.47
302.36	1.81
302.619	3.08
302.878	4.6
303.137	3.28
303.396	4.8
303.655	6.71
303.914	2.85
304.173	2.92
304.432	1.07
304.691	4.32
304.95	2.75
305.208	8.62
305.467	9.85
305.726	9.59
305.985	10.28
306.244	12.38
306.503	10.38
306.761	7.87
307.02	4.37
307.279	4.94
307.537	5.73
307.796	2.24
308.055	-0.05
308.314	1.27
308.572	-1.41
308.831	-0.32
309.09	-0.95
309.348	-0.63
309.607	0.48
309.865	4.01
310.124	4.48
310.382	6.83
310.641	6.94
310.9	5.78
311.158	6.19
311.417	6.03
311.675	5.89
311.933	6.85
312.192	8.72
312.45	10.47
312.709	10.86
312.967	11.7
313.226	11.29
313.484	10.45
313.742	9.54
314.001	6.68
314.259	3.88
314.517	4.91
314.776	6.97
315.034	9.72
315.292	7.17
315.55	4.77
315.809	4.66
316.067	4.66
316.325	3.27
316.583	4.54
316.841	3.07
317.1	1.92
317.358	-1.15
317.616	-2.76
317.874	-4.66
318.132	-5.59
318.39	-6.48
318.648	-7.32
318.906	-8.23
319.164	-9.3
319.422	-10.76
319.68	-12.56
319.938	-11.21
320.196	-12.03
320.454	-11.74
320.712	-13.17
320.97	-14.82
321.228	-18.17
321.486	-14.74
321.744	-12.79
322.002	-9.67
322.26	-10.85
322.517	-11.94
322.775	-14.83
323.033	-17.03
323.291	-13.66
323.549	-10.79
323.806	-8.24
324.064	-7.46
324.322	-7
324.58	-8.77
324.837	-5.26
325.095	-7.29
325.353	-5.89
325.61	-3.68
325.868	-2.74
326.126	-0.81
326.383	-2.89
326.641	-3.59
326.898	-2.94
327.156	-2.43
327.413	-1.11
327.671	-0.01
327.928	1.49
328.186	2.64
328.443	1.92
328.701	5.02
328.958	7.44
329.216	8.68
329.473	4.72
329.731	5.45
329.988	4.74
330.245	9.11
330.503	10.86
330.76	11.24
331.017	14.73
331.275	11.13
331.532	10.48
331.789	7.57
332.047	6.56
332.304	3.36
332.561	4.3
332.818	1.4
333.076	4.72
333.333	5.71
333.59	6.66
333.847	6.42
334.104	5.71
334.361	5.93
334.618	5.06
334.876	3.7
335.133	4.56
335.39	2.35
335.647	2.87
335.904	-1.38
336.161	-4.98
336.418	-5.91
336.675	-9.85
336.932	-9.35
337.189	-8.77
337.446	-6.35
337.703	-8.55
337.96	-13.45
338.216	-14.22
338.473	-17.27
338.73	-16.59
338.987	-16.53
339.244	-12.05
339.501	-13.71
339.757	-11.11
340.014	-8.9
340.271	-7.33
340.528	-5.66
340.785	-1.37
341.041	-2.3
341.298	-4.7
341.555	-5.67
341.811	-4.32
342.068	-6.49
342.325	-5.71
342.581	-3.08
342.838	-1.69
343.094	-1.81
343.351	-0.88
343.608	-2.38
343.864	0.52
344.121	3.89
344.377	4.94
344.634	4.28
344.89	3.45
345.147	2.29
345.403	-0.31
345.66	0.59
345.916	4.21
346.172	2.56
346.429	3.03
346.685	2.16
346.942	0.8
347.198	-2.99
347.454	-0.76
347.711	-1.41
347.967	-4.66
348.223	-3.73
348.48	-5.92
348.736	-1.62
348.992	-2.13
349.248	0.69
349.504	0.95
349.761	-0.61
350.017	-0.44
350.273	-1.11
350.529	-2.5
350.785	-2.32
351.041	-3.45
351.297	-1.96
351.554	-4.05
351.81	-5.69
352.066	-7.67
352.322	-8.41
352.578	-7.55
352.834	-9.01
353.09	-9.03
353.346	-8.69
353.602	-11.27
353.858	-12.14
354.114	-13.01
354.369	-12.8
354.625	-10.52
354.881	-12.26
355.137	-10.71
355.393	-9.82
355.649	-9.14
355.905	-8.67
356.16	-9.33
356.416	-8.46
356.672	-18.52
356.928	-18.4
357.183	-18.82
357.439	-19.55
357.695	-19.77
357.951	-15.53
358.206	-15.98
358.462	-16.36
358.718	-19.04
358.973	-18.3
359.229	-18.35
359.484	-16.89
359.74	-12.94
359.996	-11.96
360.251	-9.52
360.507	-10.73
360.762	-9.57
361.018	-5.14
361.273	-6.77
361.529	-2.64
361.784	-1.28
362.04	1.36
362.295	2.68
362.55	4.06
362.806	7.89
363.061	8.5
363.316	6.82
363.572	6.47
363.827	9.62
364.082	7.59
364.338	7.29
364.593	9.02
364.848	10.09
365.104	7.72
365.359	10.58
365.614	10.47
365.869	7.99
366.124	9.66
366.38	9.15
366.635	11.76
366.89	13.37
367.145	12.12
367.4	15.6
367.655	14.35
367.91	14.23
368.165	13.44
368.42	11.51
368.675	12.6
368.93	11.45
369.185	9.49
369.44	8.04
369.695	9.07
369.95	7.17
370.205	4.76
370.46	1.71
370.715	-0.43
370.97	1.27
371.225	2.61
371.48	5.09
371.734	4.97
371.989	6.25
372.244	6.98
372.499	8.37
372.754	7.42
373.008	5.36
373.263	1.09
373.518	3.84
373.773	1.1
374.027	-1.05
374.282	1.2
374.537	1.4
374.791	2.96
375.046	1.91
375.301	-0.05
375.555	-1.93
375.81	-0.84
376.064	0.42
376.319	4.55
376.573	3.9
376.828	0.05
377.082	5.75
377.337	2.07
377.591	-1.37
377.846	-0.21
378.1	2.12
378.355	3.17
378.609	2.79
378.863	-0.93
379.118	0.4
379.372	-1.57
379.627	-4.58
379.881	-6.57
380.135	-5.69
380.389	-5.24
380.644	-4.49
380.898	-3.53
381.152	-2.18
381.407	-2.7
381.661	1.03
381.915	2.95
382.169	2.39
382.423	1.73
382.677	-1.52
382.932	0.95
383.186	1.87
383.44	2.46
383.694	5.27
383.948	2.82
384.202	-0.11
384.456	1.07
384.71	3.79
384.964	1.4
385.218	3.99
385.472	6.02
385.726	4.5
385.98	4.23
386.234	4.07
386.488	1.93
386.742	4.01
386.996	1.65
387.249	2.25
387.503	5.88
387.757	8.83
388.011	8.83
388.265	8.72
388.518	8.23
388.772	10.5
389.026	11.55
389.28	9.64
389.533	8.21
389.787	11.05
390.041	9.72
390.295	9.71
390.548	9.19
390.802	11.34
391.055	11.33
391.309	10.12
391.563	7.8
391.816	8.24
392.07	9.31
392.323	10.05
392.577	9.89
392.83	11.45
393.084	17.83
393.337	20.84
393.591	22.23
393.844	23.36
394.098	26.4
394.351	30.37
394.604	31.36
394.858	33.03
395.111	32.72
395.364	29.55
395.618	29.77
395.871	27.29
396.124	26.69
396.378	26.37
396.631	26.17
396.884	23.15
397.137	21.85
397.391	23.02
397.644	18.59
397.897	18.97
398.15	19.48
398.403	22.64
398.657	20.37
398.91	18.33
399.163	19.77
399.416	20.06
399.669	18.48
399.922	17.19
400.175	17.44
400.428	22.04
400.681	28.85
400.934	32.52
401.187	40.19
401.44	49.49
401.693	53.26
401.946	53.68
402.199	51.22
402.452	53.23
402.704	51.46
402.957	50.3
403.21	51.85
403.463	51.75
403.716	53.94
403.969	56.39
404.221	56.7
404.474	59.88
404.727	64.29
404.98	68.12
405.232	68.44
405.485	71.94
405.738	74.09
405.99	74.39
406.243	74.37
406.496	75.82
406.748	75.96
407.001	74.52
407.253	74.05
407.506	75.24
407.759	76.86
408.011	71.8
408.264	66.85
408.516	60.77
408.769	49.76
409.021	41.18
409.274	31.53
409.526	28.07
409.778	23.52
410.031	24.97
410.283	20.52
410.536	24.37
410.788	22.71
411.04	22.61
411.293	25.02
411.545	24.24
411.797	21.96
412.049	20.69
412.302	20.74
412.554	19.45
412.806	16.43
413.058	14.53
413.311	13.95
413.563	12.37
413.815	12.58
414.067	9.62
414.319	8.89
414.571	10.43
414.823	8.94
415.075	7.25
415.328	7.86
415.58	11.2
415.832	12.37
416.084	13.68
416.336	10.25
416.588	15.7
416.84	13.48
417.091	16.03
417.343	11.73
417.595	14.44
417.847	14.47
418.099	16.93
418.351	16.03
418.603	19.25
418.855	20.09
419.106	19.4
419.358	21.23
419.61	20.6
419.862	21.67
420.114	18.37
420.365	19.05
420.617	19.4
420.869	17.59
421.12	15.03
421.372	15.98
421.624	15.5
421.875	16.22
422.127	12.64
422.379	12.67
422.63	15.78
422.882	15.87
423.133	16.24
423.385	15.14
423.636	18.02
423.888	19.25
424.139	22.81
424.391	18.08
424.642	17.7
424.894	14.79
425.145	15.99
425.396	12.51
425.648	15
425.899	12.89
426.151	12.9
426.402	12.48
426.653	12.36
426.905	10.62
427.156	6.48
427.407	6.83
427.658	6.51
427.91	4.75
428.161	3.36
428.412	5.5
428.663	6.08
428.914	8.72
429.166	10.09
429.417	9.93
429.668	9.21
429.919	8.41
430.17	6.64
430.421	6.28
430.672	8.72
430.923	8.94
431.174	9.04
431.425	16.79
431.676	31.09
431.927	47.24
432.178	74.69
432.429	102.95
432.68	128.73
432.931	148.51
433.182	166.21
433.433	171.79
433.683	180.63
433.934	182.47
434.185	182.76
434.436	182.3
434.687	183.43
434.937	186.47
435.188	184.37
435.439	184.39
435.69	185.23
435.94	184.37
436.191	184.74
436.442	186.65
436.692	184.49
436.943	181.02
437.194	179.72
437.444	182.95
437.695	187.24
437.945	187.38
438.196	186.16
438.447	185
438.697	184.03
438.948	181.92
439.198	170.32
439.449	149.77
439.699	130.32
439.949	105.48
440.2	76.22
440.45	51.77
440.701	32.69
440.951	17.34
441.201	8.8
441.452	-0.63
441.702	-4.08
441.952	-4.28
442.203	-4.38
442.453	-7
442.703	-7.05
442.953	-5.93
443.204	-5.79
443.454	-6.12
443.704	-6.42
443.954	-10
444.204	-11.09
444.455	-9.46
444.705	-8.46
444.955	-9.16
445.205	-11.24
445.455	-15.5
445.705	-15.23
445.955	-15.93
446.205	-17.31
446.455	-16.61
446.705	-16.63
446.955	-15.67
447.205	-13.46
447.455	-11.11
447.705	-13.81
447.955	-14.91
448.205	-14.74
448.454	-15.08
448.704	-14.22
448.954	-15.95
449.204	-14.49
449.454	-14.71
449.704	-16.85
449.953	-17.5
450.203	-15.12
450.453	-17.58
450.703	-13.97
450.952	-14.87
451.202	-12.9
451.452	-13.02
451.701	-10.52
451.951	-5.91
452.201	-7.26
452.45	-7.28
452.7	-4.62
452.949	-4.8
453.199	-3.73
453.448	-1.38
453.698	0.08
453.947	-0.77
454.197	-2.59
454.446	-4.99
454.696	-1.74
454.945	-1.55
455.195	-4.38
455.444	-2.78
455.693	1.63
455.943	-1.23
456.192	0.45
456.442	0.23
456.691	0.27
456.94	-0.14
457.189	-1.74
457.439	0.45
457.688	1.71
457.937	1.96
458.186	2.99
458.436	0.32
458.685	1.39
458.934	-1.67
459.183	-1.19
459.432	0.86
459.681	-0.26
459.93	-0.57
460.179	-0.84
460.429	-3.87
460.678	-0.86
460.927	1.7
461.176	0.12
461.425	-0.66
461.674	2.83
461.923	4.14
462.172	5.1
462.42	3.55
462.669	5.02
462.918	6.61
463.167	5.67
463.416	3.29
463.665	6.2
463.914	6.37
464.162	4.3
464.411	6.45
464.66	7.18
464.909	6.39
465.158	5.89
465.406	6.85
465.655	7.22
465.904	9.47
466.152	11.61
466.401	11.07
466.65	14.65
466.898	14.17
467.147	11.02
467.395	10.74
467.644	12.55
467.893	11
468.141	11.81
468.39	8.75
468.638	7.21
468.887	6.48
469.135	6.4
469.384	5.48
469.632	5.83
469.88	5.39
470.129	7.72
470.377	5.4
470.626	7.71
470.874	9.78
471.122	10.13
471.371	8.15
471.619	5.58
471.867	8.64
472.115	7.97
472.364	6.31
472.612	9.5
472.86	9.03
473.108	8.75
473.356	9.41
473.605	8.02
473.853	4.84
474.101	5.28
474.349	3.95
474.597	5.44
474.845	4.08
475.093	1.34
475.341	-0.88
475.589	0.27
475.837	2.9
476.085	4.6
476.333	2.85
476.581	5.91
476.829	6.46
477.077	9.67
477.325	10.17
477.573	13.33
477.821	12.71
478.069	14.66
478.317	15.18
478.564	18.79
478.812	18.28
479.06	18.5
479.308	19.81
479.555	22.44
479.803	24.17
480.051	29.88
480.299	33.63
480.546	37.42
480.794	38.21
481.042	44.02
481.289	48.2
481.537	55.45
481.784	61.21
482.032	71.73
482.28	79.38
482.527	87.15
482.775	96.7
483.022	108.58
483.27	119.66
483.517	131.96
483.765	140.03
484.012	148.81
484.259	154.21
484.507	165.99
484.754	175.35
485.002	183.85
485.249	190.25
485.496	198.68
485.744	206.2
485.991	211.52
486.238	215.7
486.486	224.58
486.733	232.68
486.98	242.01
487.227	244.54
487.474	250.48
487.722	255.08
487.969	255.29
488.216	257.75
488.463	261.74
488.71	260.22
488.957	260.12
489.204	258.97
489.451	258.74
489.699	255.15
489.946	250.24
490.193	247.11
490.44	243.63
490.687	238.1
490.934	231.74
491.18	222.06
491.427	218.32
491.674	217.94
491.921	213.05
492.168	204.79
492.415	195.29
492.662	191.08
492.909	188.08
493.155	184.1
493.402	177.68
493.649	171.54
493.896	167.2
494.142	160.21
494.389	155.45
494.636	148.76
494.883	142.59
495.129	137.78
495.376	131.86
495.623	129.66
495.869	127.22
496.116	123.47
496.362	120.75
496.609	120.58
496.855	121.77
497.102	118.08
497.348	114
497.595	111.7
497.841	111.81
498.088	106.26
498.334	102.81
498.581	97.07
498.827	94.66
499.074	93.05
499.32	90.41
499.566	91.33
499.813	90.38
500.059	86.71
500.305	82.58
500.552	78.14
500.798	73.75
501.044	75.25
501.29	71.83
501.537	66.49
501.783	65.92
502.029	65.61
502.275	61.18
502.521	58.36
502.767	56.49
503.013	56.16
503.26	50.91
503.506	45.33
503.752	44.91
503.998	40.49
504.244	38.51
504.49	34
504.736	32.74
504.982	29.71
505.228	30.25
505.474	30.27
505.72	30.7
505.966	28.06
506.211	30.48
506.457	29.26
506.703	24.31
506.949	20.47
507.195	17.46
507.441	13.55
507.686	15.61
507.932	15
508.178	16.63
508.424	13.09
508.669	9.75
508.915	10.51
509.161	12.95
509.406	13.63
509.652	11.93
509.898	14.44
510.143	15.04
510.389	13.28
510.634	9.36
510.88	13.02
511.125	16.1
511.371	16.32
511.616	18.16
511.862	14.4
512.107	10.94
512.353	12.43
512.598	14
512.844	10.99
513.089	6.44
513.335	7.18
513.58	5.97
513.825	6.05
514.071	3.24
514.316	2.73
514.561	2.9
514.806	1.17
515.052	1.41
515.297	-0.51
515.542	0.23
515.787	0.95
516.033	3.95
516.278	4.37
516.523	2.55
516.768	0.8
517.013	-2.42
517.258	-1.81
517.503	-1.6
517.748	-0.41
517.993	-0.88
518.238	-0.25
518.483	-2.31
518.728	-3.98
518.973	-6.96
519.218	-7.01
519.463	-6.12
519.708	-6.69
519.953	-9.7
520.198	-10.58
520.443	-7.76
520.688	-3.77
520.933	-4.79
521.177	-4.06
521.422	-6.54
521.667	-2.29
521.912	-1.84
522.157	-6.06
522.401	-2.13
522.646	-0.21
522.891	0.14
523.135	0.25
523.38	-0.11
523.625	-2.95
523.869	-0.41
524.114	1.97
524.358	1.41
524.603	1.81
524.848	-0.92
525.092	-1.95
525.337	-1.14
525.581	1.22
525.826	4.06
526.07	5.7
526.315	7.72
526.559	6.8
526.803	3.25
527.048	7.21
527.292	9.32
527.537	10.41
527.781	9.69
528.025	5.61
528.269	6.61
528.514	6.9
528.758	6.75
529.002	6.91
529.247	9.89
529.491	10.52
529.735	16.84
529.979	16.43
530.223	17.55
530.467	17.12
530.712	15.06
530.956	14.24
531.2	17.87
531.444	15.1
531.688	17.4
531.932	18.26
532.176	20.88
532.42	22.53
532.664	25.67
532.908	24.56
533.152	24.72
533.396	25.73
533.64	25.07
533.884	25.55
534.128	30.18
534.371	36.69
534.615	42.5
534.859	46.45
535.103	51.65
535.347	58.18
535.59	67.54
535.834	72.26
536.078	82.9
536.322	94.18
536.565	109.73
536.809	120.52
537.053	138.36
537.296	156.85
537.54	180.62
537.784	208.35
538.027	241.35
538.271	276.82
538.514	310.83
538.758	347.7
539.001	383.14
539.245	417.58
539.488	452.4
539.732	486.33
539.975	519.94
540.219	552.37
540.462	584.64
540.706	616.25
540.949	643.11
541.192	673.97
541.436	710.01
541.679	746.62
541.922	788.92
542.166	832.88
542.409	888.28
542.652	945.55
542.895	1004.38
543.139	1056.87
543.382	1105.59
543.625	1142.95
543.868	1177.09
544.111	1204.07
544.354	1223.8
544.598	1238.44
544.841	1247.3
545.084	1246.35
545.327	1238.12
545.57	1227.44
545.813	1214.11
546.056	1195.57
546.299	1174.54
546.542	1156.21
546.785	1137.08
547.028	1116.29
547.271	1094.02
547.514	1071.99
547.756	1046.85
547.999	1025.6
548.242	1003.44
548.485	980.08
548.728	957.16
548.971	925.65
549.213	897.33
549.456	857.65
549.699	810.62
549.942	756.12
550.184	697.64
550.427	637.87
550.67	583.8
550.912	529.12
551.155	486.64
551.398	446.14
551.64	407.55
551.883	376.98
552.125	345.53
552.368	319.73
552.61	294.14
552.853	275.76
553.095	255.24
553.338	235.64
553.58	220.05
553.823	204.12
554.065	192.49
554.308	175.45
554.55	160.35
554.792	147.12
555.035	134.83
555.277	123.09
555.519	113.46
555.762	102.46
556.004	94.47
556.246	84.64
556.488	79.25
556.731	69.35
556.973	65.67
557.215	59.29
557.457	55.85
557.699	55.24
557.941	48.09
558.183	44.1
558.426	43.47
558.668	37.25
558.91	34.46
559.152	31.39
559.394	27.81
559.636	28.42
559.878	26.44
560.12	23.4
560.362	23.38
560.604	21.67
560.845	20.38
561.087	18.97
561.329	20.13
561.571	16.19
561.813	16.11
562.055	15.08
562.297	15.74
562.538	15.89
562.78	18.63
563.022	15.18
563.264	15.77
563.505	17.2
563.747	17.36
563.989	14.44
564.23	12.65
564.472	9.3
564.714	12.26
564.955	11.36
565.197	5.94
565.438	6.74
565.68	9.66
565.921	8.46
566.163	9.49
566.404	9.2
566.646	11.63
566.887	13.67
567.129	13.36
567.37	11.86
567.612	15.59
567.853	13.06
568.094	14.41
568.336	14.04
568.577	14.82
568.818	13.23
569.06	9.19
569.301	5.95
569.542	6.29
569.783	7.33
570.025	7.24
570.266	6.97
570.507	9.36
570.748	10.09
570.989	9.82
571.23	11.51
571.472	11.71
571.713	11.48
571.954	13.17
572.195	10.51
572.436	12.72
572.677	17.7
572.918	24.73
573.159	26.94
573.4	31.52
573.641	38.28
573.882	47.93
574.123	52.99
574.364	54.05
574.604	60.89
574.845	65.82
575.086	73.77
575.327	82.64
575.568	91.62
575.809	100.91
576.049	109.98
576.29	117.92
576.531	132.88
576.771	145.65
577.012	157.96
577.253	166.22
577.494	173.74
577.734	180.86
577.975	187.5
578.215	193.8
578.456	198.58
578.697	205.63
578.937	214.49
579.178	222.29
579.418	229.96
579.659	238.8
579.899	244.44
580.14	250.57
580.38	254.06
580.62	258.24
580.861	265.06
581.101	266.83
581.342	266.05
581.582	264.39
581.822	270.04
582.063	271.44
582.303	275.36
582.543	275.67
582.783	278.01
583.024	280.03
583.264	284.77
583.504	285.52
583.744	294.24
583.984	298.09
584.224	305.31
584.465	309.49
584.705	315.18
584.945	320.19
585.185	324.42
585.425	329.71
585.665	331.97
585.905	334.43
586.145	335.37
586.385	335.95
586.625	337.46
586.865	334.62
587.105	331.42
587.345	329.58
587.585	327.77
587.824	324.86
588.064	321.94
588.304	317.65
588.544	317.82
588.784	316.03
589.024	320.63
589.263	323.53
589.503	327.49
589.743	336.53
589.982	341.89
590.222	347.86
590.462	349.94
590.701	348.89
590.941	351.85
591.181	345.37
591.42	339.82
591.66	336.39
591.899	332.78
592.139	325.38
592.378	321.01
592.618	315
592.857	309.74
593.097	307.46
593.336	303.89
593.576	301.26
593.815	299.06
594.055	297.21
594.294	298.19
594.533	298.44
594.773	298.08
595.012	300.08
595.251	302.59
595.491	308.86
595.73	313.33
595.969	316.45
596.208	320.41
596.447	326.31
596.687	325.24
596.926	323.92
597.165	315.37
597.404	314.18
597.643	305.59
597.882	298.85
598.121	294.24
598.36	289.74
598.599	286.66
598.838	282.27
599.077	274.71
599.316	270.9
599.555	267.71
599.794	265.24
600.033	265.51
600.272	264.04
600.511	259.27
600.75	260.11
600.989	260.63
601.228	260.56
601.466	259.16
601.705	257.44
601.944	258.02
602.183	258.99
602.422	255.74
602.66	251.29
602.899	245.93
603.138	243.58
603.376	238.64
603.615	233.56
603.854	227.59
604.092	224.77
604.331	223.64
604.569	224.9
604.808	224.51
605.047	229.49
605.285	234.57
605.524	242.13
605.762	251.77
606	267.72
606.239	290.48
606.477	317.71
606.716	351.45
606.954	405.48
607.193	482.26
607.431	582.7
607.669	711.49
607.908	863.07
608.146	1027.89
608.384	1195.24
608.622	1353.88
608.861	1503.51
609.099	1640.93
609.337	1766.19
609.575	1880.35
609.813	1986.51
610.052	2081.15
610.29	2158.48
610.528	2229.12
610.766	2295.83
611.004	2354.3
611.242	2407.56
611.48	2456.98
611.718	2499.43
611.956	2539.55
612.194	2571.1
612.432	2599.7
612.67	2622.91
612.908	2643.33
613.146	2653.05
613.384	2657.33
613.621	2651.74
613.859	2641.44
614.097	2617.36
614.335	2576.89
614.573	2511.61
614.811	2420.32
615.048	2298.86
615.286	2156.17
615.524	1999.95
615.761	1836.2
615.999	1682.67
616.237	1538.98
616.474	1409.28
616.712	1289.44
616.95	1178.79
617.187	1078.49
617.425	991.18
617.662	915.51
617.9	845.01
618.137	779.97
618.375	724.29
618.612	670.81
618.85	626.06
619.087	586.11
619.325	547.16
619.562	514.14
619.799	481.82
620.037	456.32
620.274	432.83
620.511	418.44
620.749	400.94
620.986	389.69
621.223	378.21
621.461	371.72
621.698	368.55
621.935	364.65
622.172	361.82
622.409	365.58
622.647	366.89
622.884	366.62
623.121	371.53
623.358	373.24
623.595	375.51
623.832	377.55
624.069	379.13
624.306	383
624.543	387.47
624.78	390.82
625.017	394.34
625.254	399.23
625.491	403.61
625.728	408.9
625.965	411.85
626.202	412.6
626.438	411.75
626.675	414.76
626.912	421.6
627.149	431.42
627.386	441.61
627.622	451.11
627.859	459.86
628.096	472.22
628.333	481.74
628.569	490.78
628.806	499.21
629.043	501.16
629.279	502.35
629.516	502.36
629.752	494.15
629.989	490.17
630.225	482.17
630.462	474.11
630.699	465.81
630.935	456.89
631.171	444.88
631.408	434.94
631.644	422.93
631.881	409.03
632.117	396.42
632.354	387.04
632.59	375.29
632.826	363.36
633.063	352.04
633.299	342.11
633.535	328.65
633.771	317.88
634.008	307.28
634.244	292.75
634.48	275.23
634.716	257.9
634.953	236.32
635.189	216.83
635.425	197.05
635.661	178.54
635.897	159.84
636.133	142.46
636.369	126.96
636.605	111.39
636.841	100.14
637.077	93.97
637.313	85.08
637.549	79.92
637.785	75.56
638.021	72.93
638.257	68.2
638.493	68.61
638.729	65.42
638.965	67.26
639.2	68.51
639.436	67.24
639.672	63.85
639.908	61.44
640.144	66.4
640.379	68.68
640.615	65.89
640.851	68.51
641.086	69.84
641.322	66.72
641.558	65.77
641.793	65.08
642.029	62
642.264	60.44
642.5	58.39
642.736	55.81
642.971	58.26
643.207	55.51
643.442	52.95
643.678	54.2
643.913	55.64
644.148	55.54
644.384	57.76
644.619	60.09
644.855	61.14
645.09	60.18
645.325	60.46
645.561	62.17
645.796	59.63
646.031	63.04
646.266	61.38
646.502	61.2
646.737	66.6
646.972	71.63
647.207	76.54
647.442	76.68
647.678	76.81
647.913	85.64
648.148	90.21
648.383	93.45
648.618	98.06
648.853	101.23
649.088	106.31
649.323	112.18
649.558	115.89
649.793	118.45
650.028	121.03
650.263	117.44
650.498	121.12
650.733	123.32
650.968	122.18
651.202	126.38
651.437	125.77
651.672	122.18
651.907	121.09
652.142	122.72
652.376	124.66
652.611	126.3
652.846	127.87
653.081	128.73
653.315	126.74
653.55	125.16
653.785	123.58
654.019	122.33
654.254	117.84
654.488	114.73
654.723	108.07
654.958	101.8
655.192	94.59
655.427	88.74
655.661	84.63
655.896	83.7
656.13	82.33
656.364	76.18
656.599	69.75
656.833	72.19
657.068	72.59
657.302	70.71
657.536	67.87
657.771	67.17
658.005	65.87
658.239	66.39
658.474	62.87
658.708	64.63
658.942	65.44
659.176	65.62
659.41	63.58
659.645	64.42
659.879	64.7
660.113	61.84
660.347	63.54
660.581	63.82
660.815	65
661.049	64.29
661.283	60.03
661.517	57.56
661.751	56.38
661.985	55.75
662.219	58.33
662.453	56.81
662.687	57.42
662.921	54.03
663.155	50.85
663.389	43.98
663.622	41.91
663.856	44.67
664.09	40.03
664.324	38.03
664.558	36.6
664.791	35.05
665.025	35.3
665.259	35.13
665.492	32.99
665.726	35.33
665.96	33.57
666.193	30.62
666.427	29.77
666.661	28.26
666.894	23.14
667.128	19.7
667.361	21.04
667.595	17.04
667.828	14.01
668.062	12.04
668.295	11.17
668.529	11.97
668.762	14.02
668.995	12.17
669.229	14.77
669.462	14.18
669.695	14.34
669.929	11.13
670.162	12.82
670.395	11.47
670.629	13.28
670.862	15.78
671.095	11.47
671.328	11.95
671.561	9.07
671.795	10.22
672.028	12.8
672.261	14.01
672.494	16.79
672.727	14.92
672.96	14.29
673.193	13.42
673.426	17.5
673.659	18.17
673.892	18.5
674.125	18.7
674.358	16.8
674.591	15.95
674.824	15.9
675.057	15.38
675.29	13.6
675.523	15.85
675.755	13.83
675.988	13.98
676.221	17.18
676.454	16.7
676.687	17.73
676.919	16.67
677.152	17.25
677.385	17.04
677.617	17.55
677.85	19.75
678.083	18.54
678.315	21
678.548	19.44
678.78	18.11
679.013	18.2
679.246	18.87
679.478	18.66
679.711	16.06
679.943	19.01
680.175	16.41
680.408	20.68
680.64	17.7
680.873	17.46
681.105	17.88
681.338	22.1
681.57	22.7
681.802	23.32
682.034	23.43
682.267	27.01
682.499	29.11
682.731	27.65
682.964	27.37
683.196	25.6
683.428	24.72
683.66	24.53
683.892	29.76
684.124	35.09
684.356	40.84
684.589	43.4
684.821	45.71
685.053	48.63
685.285	51.92
685.517	55.54
685.749	58.34
685.981	63.28
686.213	64.9
686.445	67.22
686.676	64.87
686.908	64.87
687.14	63.41
687.372	65.25
687.604	61.21
687.836	62.42
688.068	62
688.299	61.96
688.531	59.41
688.763	64.64
688.995	63.05
689.226	66.57
689.458	64.65
689.69	64.88
689.921	63.15
690.153	63.99
690.384	67.24
690.616	67.65
690.848	68.86
691.079	63.63
691.311	60.36
691.542	56.72
691.774	53.2
692.005	52.92
692.237	52.49
692.468	48.61
692.699	45.81
692.931	43.46
693.162	38.93
693.393	37.45
693.625	34.4
693.856	34.63
694.087	35.27
694.319	36.01
694.55	34.27
694.781	33.16
695.012	31.28
695.243	28.72
695.475	27.21
695.706	27.4
695.937	25.46
696.168	24.07
696.399	21.25
696.63	19.65
696.861	18.06
697.092	21.81
697.323	24.19
697.554	22.24
697.785	19.78
698.016	18.26
698.247	15.49
698.478	15.58
698.709	15.81
698.94	17.94
699.171	17.14
699.401	12.59
699.632	14.46
699.863	11.36
700.094	11.77
700.325	15.2
700.555	16.32
700.786	17.84
701.017	19.3
701.247	18.85
701.478	19.64
701.709	21.1
701.939	22.32
702.17	27.47
702.401	32.62
702.631	36.98
702.862	38.31
703.092	39.6
703.323	48.66
703.553	56.83
703.784	65.54
704.014	73.28
704.244	77.5
704.475	83.66
704.705	94.2
704.936	103.24
705.166	110.73
705.396	122.27
705.627	131.04
705.857	140.72
706.087	149.61
706.317	157.41
706.548	164.16
706.778	169.79
707.008	177.13
707.238	183.13
707.468	184.58
707.698	185.14
707.928	187.37
708.158	189.3
708.389	193.15
708.619	196.93
708.849	201.18
709.079	206.49
709.309	208.2
709.539	211.52
709.768	215.69
709.998	222.43
710.228	223.95
710.458	221.37
710.688	215.32
710.918	210.18
711.148	205.11
711.378	199.38
711.607	191.76
711.837	182.93
712.067	174.71
712.297	165.9
712.526	155.97
712.756	148.2
712.986	135.27
713.215	124.15
713.445	115.79
713.674	108.74
713.904	101.65
714.134	98.17
714.363	91.69
714.593	86.44
714.822	81.27
715.052	76.73
715.281	72.64
715.511	66.64
715.74	62.09
715.969	54.05
716.199	45.79
716.428	39.54
716.657	32.34
716.887	27.24
717.116	18.23
717.345	15.9
717.575	10.78
717.804	7.77
718.033	4.04
718.262	1.02
718.492	-0.68
718.721	-1.37
718.95	-3.11
719.179	-5.31
719.408	-4.65
719.637	-8.6
719.866	-10.68
720.095	-9.46
720.324	-11.31
720.553	-15.44
720.782	-16.79
721.011	-16.51
721.24	-18.45
721.469	-19.02
721.698	-18.39
721.927	-17.96
722.156	-20.41
722.385	-21.28
722.613	-17.98
722.842	-18.74
723.071	-14.23
723.3	-11.78
723.529	-12.07
723.757	-12.13
723.986	-15.01
724.215	-16.85
724.443	-18.26
724.672	-15.01
724.901	-14.34
725.129	-12.28
725.358	-8.19
725.586	-11.3
725.815	-11.9
726.043	-12.91
726.272	-14.14
726.5	-14.09
726.729	-12.06
726.957	-15.41
727.186	-16.46
727.414	-14.96
727.642	-12.76
727.871	-10.64
728.099	-11.35
728.327	-11.97
728.556	-9.11
728.784	-8.01
729.012	-8.71
729.241	-3.96
729.469	-4.39
729.697	-7.29
729.925	-5.7
730.153	-8.11
730.381	-8.25
730.61	-8.24
730.838	-10.83
731.066	-11.17
731.294	-11.37
731.522	-13.75
731.75	-18.36
731.978	-19.42
732.206	-20.3
732.434	-22.88
732.662	-20.37
732.89	-22.14
733.118	-22.16
733.346	-20.43
733.573	-20.76
733.801	-20.42
734.029	-13.22
734.257	-11.8
734.485	-7.35
734.712	-6.06
734.94	-8.49
735.168	-4.6
735.396	-4.49
735.623	-7.08
735.851	-6.31
736.078	-4.57
736.306	-4.67
736.534	-6.79
736.761	-6.16
736.989	-9.88
737.216	-10.04
737.444	-11.53
737.671	-11
737.899	-5.89
738.126	-5.8
738.354	-5.02
738.581	-4.14
738.809	-3.37
739.036	-5.5
739.263	-5.16
739.491	-6.71
739.718	-6.22
739.945	0.08
740.173	1.62
740.4	0.62
740.627	0.63
740.854	0.12
741.081	-2.46
741.309	-5.42
741.536	-9.98
741.763	-10.52
741.99	-8.73
742.217	-9.58
742.444	-9.81
742.671	-8.7
742.898	-8.87
743.125	-10.66
743.352	-14.23
743.579	-11.44
743.806	-11.05
744.033	-6.58
744.26	-6.09
744.487	-5.65
744.714	-5.39
744.941	-5.15
745.167	-0.77
745.394	-2.14
745.621	-1.69
745.848	-0.57
746.075	3.15
746.301	6.37
746.528	9.92
746.755	7.39
746.981	5.58
747.208	6.01
747.435	8.61
747.661	8.11
747.888	9.65
748.114	6.05
748.341	8.25
748.567	9.09
748.794	6.85
749.02	6.68
749.247	4.33
749.473	2.96
749.7	2.62
749.926	1.3
750.152	5.8
750.379	6.51
750.605	6.56
750.831	5.66
751.058	3.86
751.284	1.97
751.51	3.43
751.737	5.53
751.963	3.55
752.189	0.95
752.415	0.81
752.641	-0.25
752.867	-0.75
753.094	-2.47
753.32	-4.1
753.546	-5.45
753.772	-2.22
753.998	-4.4
754.224	-4.55
754.45	-5.46
754.676	-5.93
754.902	-6.9
755.128	-4.79
755.354	-4.15
755.579	-2.21
755.805	0.17
756.031	-1.95
756.257	-3.01
756.483	-4.29
756.709	-6.49
756.934	-6.31
757.16	-9.83
757.386	-9.27
757.612	-11.45
757.837	-12.45
758.063	-11.56
758.289	-8.26
758.514	-9.55
758.74	-14.12
758.965	-17.28
759.191	-15.09
759.416	-13.32
759.642	-12
759.868	-12.26
760.093	-9.41
760.318	-10.56
760.544	-10.47
760.769	-12.49
760.995	-11.8
761.22	-10.99
761.445	-8.55
761.671	-6.45
761.896	-3.46
762.121	-4.68
762.347	-5.78
762.572	-8.55
762.797	-9.52
763.022	-8.68
763.248	-4.1
763.473	-1.86
763.698	-1.27
763.923	-1.12
764.148	-1.24
764.373	-1.93
764.598	-0.57
764.823	1.04
765.048	-1.91
765.273	-5.3
765.498	-5.92
765.723	-4.57
765.948	-2.24
766.173	-3.85
766.398	-2.94
766.623	-5.71
766.848	-6.8
767.073	-9.89
767.298	-9.7
767.522	-10.57
767.747	-8.54
767.972	-10.16
768.197	-10.21
768.421	-12.12
768.646	-15.29
768.871	-18.88
769.095	-17.67
769.32	-15.58
769.545	-14.61
769.769	-13.74
769.994	-12.36
770.218	-16
770.443	-15.17
770.667	-14.36
770.892	-13.58
771.116	-13.66
771.341	-12.74
771.565	-12.32
771.79	-11.85
772.014	-11.9
772.238	-12.94
772.463	-10.83
772.687	-10.67
772.911	-11.05
773.136	-14.62
773.36	-14.41
773.584	-11.03
773.808	-12.39
774.033	-10.69
774.257	-11.13
774.481	-12.04
774.705	-13.46
774.929	-12.48
775.153	-13.29
775.377	-12.21
775.602	-11.87
775.826	-9.78
776.05	-8.15
776.274	-9.9
776.498	-10.17
776.722	-10.34
776.945	-8.98
777.169	-8.75
777.393	-9.93
777.617	-10.47
777.841	-8.95
778.065	-7.84
778.289	-8.52
778.512	-9.84
778.736	-9.38
778.96	-8.88
779.184	-5.53
779.407	-6.39
779.631	-5.44
779.855	-7.12
780.078	-4.81
780.302	-6.03
780.526	-9.37
780.749	-8.23
780.973	-7.64
781.196	-8.17
781.42	-9.4
781.643	-9.55
781.867	-9.22
782.09	-12.67
782.314	-12.6
782.537	-12.41
782.76	-13.83
782.984	-13.41
783.207	-14.05
783.431	-13.79
783.654	-15.75
783.877	-18.31
784.1	-20.35
784.324	-20.89
784.547	-22.9
784.77	-28.08
784.993	-29.37
785.216	-30.14
785.44	-29.25
785.663	-30.16
785.886	-27.04
786.109	-27.34
786.332	-27.09
786.555	-26.71
786.778	-25.02
787.001	-24.59
787.224	-23.15
787.447	-21.84
787.67	-20.23
787.893	-20.63
788.116	-19.68
788.339	-18.05
788.561	-18.27
788.784	-22.06
789.007	-22.13
789.23	-23.71
789.453	-25
789.675	-26.87
789.898	-28.58
790.121	-30.32
790.344	-31.37
790.566	-30.16
790.789	-30.44
791.012	-28.66
791.234	-26.2
791.457	-21.08
791.679	-20.06
791.902	-19.11
792.124	-18.84
792.347	-20.22
792.569	-21.4
792.792	-24.27
793.014	-20.83
793.237	-20.45
793.459	-21.07
793.681	-19.74
793.904	-20.13
794.126	-22.28
794.348	-23.06
794.571	-21.67
794.793	-22.61
795.015	-22.88
795.237	-23.9
795.46	-22.31
795.682	-20.03
795.904	-17.49
796.126	-19.28
796.348	-19.02
796.57	-14.55
796.792	-14.09
797.014	-8.33
797.237	-6.25
797.459	-3.8
797.681	-1.83
797.903	-3.62
798.124	-2.62
798.346	9.56
798.568	12.15
798.79	15.25
799.012	17.77
799.234	19.52
799.456	21.72
799.678	23.21
799.899	19.01
800.121	16.37
800.343	16.09
800.565	14.89
800.786	14.41
801.008	16.34
801.23	16.89
801.451	16.72
801.673	14.47
801.895	14.38
802.116	15.91
802.338	15.56
802.559	15.39
802.781	13.55
803.002	15.64
803.224	17.89
803.445	14.1
803.667	15.25
803.888	12.69
804.109	11.26
804.331	10.54
804.552	10
804.773	12.37
804.995	9.18
805.216	-6.44
805.437	-8.69
805.658	-11.44
805.88	-14.03
806.101	-13.32
806.322	-13.53
806.543	-16.39
806.764	-18.06
806.985	-16.68
807.207	-15.64
807.428	-14.29
807.649	-16.38
807.87	-17.75
808.091	-17.59
808.312	-16.79
808.533	-9.98
808.754	-7.84
808.975	-8.86
809.195	-6.9
809.416	-6.52
809.637	-6.43
809.858	-8.07
810.079	-9.83
810.3	-7.21
810.52	-8.51
810.741	-11.85
810.962	-12.8
811.183	-12.95
811.403	-12.98
811.624	-13.32
811.845	-12.24
812.065	-9.54
812.286	-8.54
812.506	-9.16
812.727	-9.18
812.948	-8.83
813.168	-7.6
813.389	-7.28
813.609	-5.63
813.83	-6.14
814.05	-7.74
814.27	-8.34
814.491	-4.08
814.711	-4.6
814.931	-7.52
815.152	-8
815.372	-11.01
815.592	-11.11
815.813	-13.15
816.033	-14.52
816.253	-13.28
816.473	-14.8
816.694	-13.52
816.914	-11.77
817.134	-11.34
817.354	-12.88
817.574	-12.13
817.794	-11.6
818.014	-14.05
818.234	-14.41
818.454	-15.25
818.674	-17.48
818.894	-21.55
819.114	-18.57
819.334	-18.17
819.554	-15.13
819.774	-13.08
819.994	-17.67
820.214	-17.49
820.433	-17.62
820.653	-16.78
820.873	-13.17
821.093	-13.98
821.312	-16.36
821.532	-14.01
821.752	-10.57
821.972	-13.6
822.191	-13.11
822.411	-15
822.63	-13.68
822.85	-13.94
823.07	-16.9
823.289	-14.54
823.509	-16.46
823.728	-14.29
823.948	-17.01
824.167	-18
824.387	-17.15
824.606	-16.55
824.825	-16.88
825.045	-17.16
825.264	-17.93
825.483	-16.06
825.703	-12.69
825.922	-15.76
826.141	-17.48
826.361	-18.92
826.58	-23.35
826.799	-23.06
827.018	-21.55
827.237	-20.91
827.456	-20.33
827.676	-22.66
827.895	-21.79
828.114	-20.28
828.333	-20.54
828.552	-20.49
828.771	-18.62
828.99	-21.45
829.209	-20.67
829.428	-17.74
829.647	-17.68
829.866	-16.85
830.084	-17.7
830.303	-17.28
830.522	-18.2
830.741	-17.65
830.96	-17.02
831.179	-17.74
831.397	-18.07
831.616	-18.05
831.835	-17.73
832.053	-16.32
832.272	-15.92
832.491	-16.09
832.709	-17.11
832.928	-14.83
833.147	-14.78
833.365	-11.8
833.584	-9.71
833.802	-9.42
834.021	-9.64
834.239	-8.28
834.458	-9.09
834.676	-12.11
834.894	-12.94
835.113	-14.41
835.331	-15.03
835.55	-14.73
835.768	-12.64
835.986	-12.37
836.204	-14.38
836.423	-14.02
836.641	-14.86
836.859	-16.67
837.077	-15.18
837.296	-16.49
837.514	-17.47
837.732	-17.99
837.95	-17.67
838.168	-15.63
838.386	-15.6
838.604	-13.18
838.822	-12.93
839.04	-14.89
839.258	-13.94
839.476	-11.74
839.694	-12.08
839.912	-13.18
840.13	-14.3
840.348	-10.79
840.566	-12.59
840.783	-10.38
841.001	-13.02
841.219	-10.91
841.437	-9.01
841.655	-10
841.872	-9.79
842.09	-10.14
842.308	-9.85
842.525	-10.59
842.743	-9.88
842.961	-12.1
843.178	-14.34
843.396	-10.22
843.613	-8.8
843.831	-8.36
844.048	-8.79
844.266	-8
844.483	-8.03
844.701	-9.24
844.918	-8.42
845.136	-8.71
845.353	-11.72
845.57	-11.01
845.788	-7.39
846.005	-9.65
846.222	-10.01
846.439	-9.24
846.657	-8.52
846.874	-9.12
847.091	-11.98
847.308	-9.85
847.526	-12.39
847.743	-12.17
847.96	-15.56
848.177	-14.32
848.394	-12.68
848.611	-12.99
848.828	-12.76
849.045	-14.61
849.262	-13.5
849.479	-15.12
849.696	-15.13
849.913	-16.97
850.13	-21.69
850.347	-17.46
850.564	-16.94
850.78	-18.32
850.997	-19.44
851.214	-18.71
851.431	-17.74
851.647	-21.67
851.864	-20.73
852.081	-18.13
852.298	-22.69
852.514	-24.52
852.731	-23.92
852.948	-23.3
853.164	-22.96
853.381	-23.45
853.597	-23.99
853.814	-25.93
854.03	-29.32
854.247	-27.15
854.463	-27.77
854.68	-26.94
854.896	-27.66
855.113	-27.31
855.329	-27.37
855.545	-26.2
855.762	-25.38
855.978	-30.36
856.194	-30.9
856.411	-27.44
856.627	-24.44
856.843	-23.13
857.059	-22
857.275	-23.88
857.492	-22.45
857.708	-18.96
857.924	-17.76
858.14	-15.38
858.356	-15.56
858.572	-15.99
858.788	-17.74
859.004	-15.95
859.22	-16.29
859.436	-15.55
859.652	-16.49
859.868	-15.98
860.084	-15.7
860.3	-16.19
860.516	-15.76
860.731	-15.77
860.947	-18.45
861.163	-15.79
861.379	-15.63
861.595	-14.54
861.81	-14.97
862.026	-15.85
862.242	-15.57
862.457	-16.13
862.673	-13.18
862.889	-12.43
863.104	-13.36
863.32	-11.8
863.535	-11.3
863.751	-18
863.966	-15.29
864.182	-13.44
864.397	-15.22
864.613	-17.4
864.828	-17.61
865.044	-16.65
865.259	-15.08
865.474	-16.52
865.69	-13.24
865.905	-13.43
866.12	-15.4
866.336	-16.72
866.551	-16.8
866.766	-18.47
866.981	-19.52
867.196	-19
867.412	-17.45
867.627	-17.28
867.842	-19.18
868.057	-18.44
868.272	-19.12
868.487	-19.48
868.702	-19.03
868.917	-21.17
869.132	-19.85
869.347	-19.49
869.562	-20.71
869.777	-20.29
869.992	-21.89
870.207	-22.67
870.422	-21.66
870.636	-24.08
870.851	-25.9
871.066	-28.92
871.281	-28.38
871.495	-30.83
871.71	-29.07
871.925	-30.78
872.14	-29.33
872.354	-33.47
872.569	-34.19
872.783	-33.72
872.998	-32.71
873.213	-33.43
873.427	-29.55
873.642	-27.35
873.856	-26.77
874.071	-28.46
874.285	-29.07
874.5	-30.45
874.714	-33.13
874.928	-34.06
875.143	-35.09
875.357	-36.4
875.571	-36.87
875.786	-36.21
876	-33.15
876.214	-31.48
876.429	-34.72
876.643	-35.1
876.857	-34.11
877.071	-33
877.285	-34.35
877.499	-37.68
877.714	-34.29
877.928	-31.49
878.142	-33.26
878.356	-34.98
878.57	-34.29
878.784	-33.89
878.998	-33.31
879.212	-30.06
879.426	-31.04
879.639	-27.82
879.853	-29.53
880.067	-30.76
880.281	-32.28
880.495	-32.12
880.709	-28.89
880.922	-27.8
881.136	-26.37
881.35	-24.19
881.564	-25.65
881.777	-27.95
881.991	-25.21
882.205	-21.42
882.418	-22.83
882.632	-25.83
882.845	-27.04
883.059	-25.22
883.273	-25.25
883.486	-26.33
883.7	-23.31
883.913	-24.48
884.126	-21.68
884.34	-24.16
884.553	-26.67
884.767	-21.25
884.98	-20.95
885.193	-22.62
885.407	-23.87
885.62	-22.18
885.833	-22.33
886.046	-19.56
886.26	-22.7
886.473	-23.5
886.686	-24.69
886.899	-22.47
887.112	-22.88
887.326	-25.24
887.539	-25.54
887.752	-23.57
887.965	-25.65
888.178	-23.98
888.391	-21.49
888.604	-22.24
888.817	-24.97
889.03	-23.73
889.243	-24.56
889.455	-27.4
889.668	-26.19
889.881	-23.31
890.094	-22.67
890.307	-25.21
890.52	-20.6
890.732	-20.31
890.945	-21.43
891.158	-20.83
891.37	-25.11
891.583	-24.1
891.796	-21.33
892.008	-22.84
892.221	-24.16
892.434	-29.29
892.646	-30.73
892.859	-31.82
893.071	-28.67
893.284	-26.4
893.496	-26.84
893.709	-26.63
893.921	-25.26
894.133	-26.03
894.346	-26.59
894.558	-26.71
894.771	-26.84
894.983	-25.69
895.195	-25.08
895.407	-24.54
895.62	-27.63
895.832	-26.52
896.044	-22.2
896.256	-23.67
896.468	-25.8
896.681	-25.12
896.893	-24.63
897.105	-25.8
897.317	-26.67
897.529	-23.64
897.741	-23.07
897.953	-19.11
898.165	-20.37
898.377	-21.77
898.589	-18.49
898.801	-17.98
899.013	-13.89
899.224	-11.04
899.436	-7.73
899.648	-9.29
899.86	-11.27
900.072	-8.72
900.283	-7.77
900.495	-5.83
900.707	-3.88
900.919	-7.13
901.13	-4.07
901.342	-4.23
901.554	-3.93
901.765	-2.81
901.977	-4.92
902.188	-3.96
902.4	-4.81
902.611	-6.68
902.823	-8.77
903.034	-10.53
903.246	-11.37
903.457	-13.27
903.669	-14.32
903.88	-14.05
904.091	-15.14
904.303	-15.53
904.514	-17.83
904.725	-15.82
904.936	-16
905.148	-17.23
905.359	-13.69
905.57	-14.61
905.781	-18.11
905.992	-19.77
906.204	-18.84
906.415	-18.33
906.626	-21.01
906.837	-18.09
907.048	-19.11
907.259	-20.81
907.47	-21.19
907.681	-22.79
907.892	-20.4
908.103	-23.47
908.314	-25.72
908.525	-22.66
908.735	-23.36
908.946	-24.43
909.157	-26.29
909.368	-23.33
909.579	-22.03
909.789	-23.55
910	-24.62
910.211	-22.87
910.421	-24.35
910.632	-22.26
910.843	-24.53
911.053	-21.55
911.264	-19.42
911.475	-19.23
911.685	-19.59
911.896	-20.43
912.106	-19.71
912.317	-21.15
912.527	-19.71
912.737	-20.56
912.948	-19.99
913.158	-20.59
913.369	-24.97
913.579	-22.9
913.789	-21.24
914	-17.03
914.21	-17.67
914.42	-18.07
914.63	-17.49
914.841	-17.81
915.051	-17.68
915.261	-15.69
915.471	-12.46
915.681	-10.99
915.891	-10.78
916.101	-12.22
916.311	-12.24
916.521	-9.78
916.731	-10.41
916.941	-5.63
917.151	-7.17
917.361	-2.84
917.571	-6.56
917.781	-9.1
917.991	-11.63
918.201	-10.26
918.411	-12.98
918.621	-13.98
918.83	-12.22
919.04	-14.87
919.25	-12.89
919.46	-12.08
919.669	-13.08
919.879	-12.43
920.089	-13.86
920.298	-15.25
920.508	-15.66
920.717	-15.26
920.927	-18.93
921.136	-18.3
921.346	-19.05
921.555	-21.81
921.765	-21.7
921.974	-24.52
922.184	-27.49
922.393	-28.44
922.603	-28.61
922.812	-25.6
923.021	-26.44
923.23	-27.4
923.44	-32.19
923.649	-30.92
923.858	-32.03
924.067	-32.29
924.277	-34.62
924.486	-31.7
924.695	-33.05
924.904	-32.04
925.113	-31.1
925.322	-29.19
925.531	-27.78
925.74	-31.13
925.949	-32.33
926.158	-29.56
926.367	-30.36
926.576	-30.08
926.785	-30.05
926.994	-32.18
927.203	-30.35
927.412	-29.5
927.621	-30.54
927.83	-28.12
928.038	-27.88
928.247	-29.15
928.456	-28.3
928.665	-24.7
928.873	-23.14
929.082	-20.94
929.291	-20.9
929.499	-19.23
929.708	-20.69
929.916	-19.09
930.125	-21.21
930.333	-23.24
930.542	-19.83
930.75	-16.22
930.959	-16.2
931.167	-16.07
931.376	-17.34
931.584	-16.42
931.793	-16.17
932.001	-17.01
932.209	-18.09
932.418	-20.38
932.626	-23.64
932.834	-23.91
933.042	-27.31
933.251	-26.71
933.459	-25.11
933.667	-26.34
933.875	-25.68
934.083	-24.02
934.291	-23.83
934.499	-23.06
934.707	-22.98
934.915	-23.41
935.123	-21.93
935.331	-22.82
935.539	-25.16
935.747	-27.48
935.955	-29.63
936.163	-28.91
936.371	-29.5
936.579	-28.13
936.787	-26.77
936.995	-30.03
937.202	-33.51
937.41	-34.08
937.618	-35.49
937.826	-34.42
938.033	-39.6
938.241	-41.93
938.449	-39.18
938.656	-36.75
938.864	-36.79
939.071	-36.12
939.279	-34.17
939.486	-32.26
939.694	-33.51
939.901	-36.16
940.109	-35.92
940.316	-36.26
940.524	-36.68
940.731	-37.82
940.939	-36.7
941.146	-37.24
941.353	-37.67
941.561	-38.66
941.768	-39.65
941.975	-37.2
942.182	-36.94
942.39	-35.3
942.597	-31.66
942.804	-30.83
943.011	-31.01
943.218	-31.25
943.425	-29.37
943.632	-28.18
943.839	-28.81
944.046	-28.3
944.253	-28.22
944.46	-26.72
944.667	-23.67
944.874	-25.54
945.081	-23.17
945.288	-20.61
945.495	-18.23
945.702	-18.7
945.909	-20
946.115	-18.11
946.322	-18.73
946.529	-17.93
946.736	-17.79
946.942	-16.04
947.149	-17.04
947.356	-18.51
947.562	-20.33
947.769	-19.89
947.976	-21.08
948.182	-19.44
948.389	-21.79
948.595	-21.24
948.802	-20.85
949.008	-23.35
949.215	-22.8
949.421	-22.93
949.628	-24.67
949.834	-25
950.04	-25.03
950.247	-20.97
950.453	-19.42
950.659	-20.41
950.865	-18.99
951.072	-23.77
951.278	-21.26
951.484	-24.52
951.69	-28.03
951.896	-29.67
952.103	-29.95
952.309	-28.58
952.515	-29.97
952.721	-27.23
952.927	-26.61
953.133	-27.04
953.339	-28.82
953.545	-28.85
953.751	-27.24
953.957	-23.71
954.163	-24.64
954.369	-24.22
954.574	-27.21
954.78	-26.62
954.986	-25.89
955.192	-23.9
955.398	-24.54
955.603	-27.05
955.809	-25.17
956.015	-23.02
956.22	-22.72
956.426	-21.62
956.632	-25.8
956.837	-26.19
957.043	-25.31
957.248	-23.87
957.454	-22.52
957.66	-24.41
957.865	-24.1
958.07	-22.88
958.276	-23.4
958.481	-24.54
958.687	-25.23
958.892	-24.9
959.097	-24.77
959.303	-25.24
959.508	-26.28
959.713	-26.33
959.919	-25.46
960.124	-26.92
960.329	-26.49
960.534	-24.24
960.739	-23.09
960.945	-19.71
961.15	-19.45
961.355	-20.85
961.56	-24.8
961.765	-25.39
961.97	-24.74
962.175	-24.17
962.38	-27.79
962.585	-26.45
962.79	-29.68
962.995	-29.41
963.2	-30.64
963.404	-31.76
963.609	-34.01
963.814	-35.2
964.019	-38.63
964.224	-40.87
964.428	-38.93
964.633	-38.92
964.838	-37.61
965.042	-38.31
965.247	-40.57
965.452	-41.94
965.656	-41.85
965.861	-39.92
966.066	-40.71
966.27	-38.96
966.475	-34.74
966.679	-38.31
966.884	-37.59
967.088	-39.91
967.292	-41.29
967.497	-40.49
967.701	-42.34
967.906	-40.08
968.11	-37.85
968.314	-33.05
968.518	-34.66
968.723	-32.13
968.927	-32.9
969.131	-30.05
969.335	-28.42
969.539	-28.27
969.744	-26.27
969.948	-23.5
970.152	-21.03
970.356	-18.92
970.56	-16.87
970.764	-18.22
970.968	-16.04
971.172	-15.82
971.376	-13.75
971.58	-10.71
971.784	-9.18
971.988	-10.51
972.192	-8.41
972.395	-8
972.599	-11.88
972.803	-14.13
973.007	-12.16
973.21	-12
973.414	-12.3
973.618	-13
973.822	-14.17
974.025	-12.75
974.229	-14.3
974.432	-17.93
974.636	-20.59
974.84	-21.04
975.043	-20.25
975.247	-21.37
975.45	-24.1
975.654	-22.3
975.857	-20.22
976.06	-20.92
976.264	-22.82
976.467	-22.74
976.671	-22.76
976.874	-21.81
977.077	-22.5
977.28	-22.09
977.484	-24.6
977.687	-26.12
977.89	-25.71
978.093	-26.54
978.297	-25.26
978.5	-26.52
978.703	-26.08
978.906	-24.5
979.109	-24.95
979.312	-24.64
979.515	-25.9
979.718	-25.36
979.921	-25.28
980.124	-26.69
980.327	-26.34
980.53	-25.04
980.733	-22.45
980.936	-19.45
981.138	-19.86
981.341	-19.11
981.544	-17.73
981.747	-17.51
981.949	-20.32
982.152	-20.48
982.355	-22.15
982.558	-20.03
982.76	-22.67
982.963	-24.01
983.165	-23.48
983.368	-22.86
983.571	-25.06
983.773	-21.3
983.976	-20.66
984.178	-20.46
984.381	-20.8
984.583	-24.1
984.785	-25.33
984.988	-23.14
985.19	-20.58
985.392	-21.26
985.595	-22.81
985.797	-23.12
985.999	-20.5
986.202	-17.68
986.404	-16.96
986.606	-15.26
986.808	-16.45
987.01	-14.46
987.212	-16.59
987.415	-17.7
987.617	-18.27
987.819	-19.42
988.021	-18.27
988.223	-19.08
988.425	-19.82
988.627	-18.73
988.829	-22.8
989.031	-19.75
989.232	-20.42
989.434	-20.54
989.636	-19.99
989.838	-20.21
990.04	-19.22
990.242	-20.91
990.443	-22.96
990.645	-21.28
990.847	-16.95
991.048	-15.85
991.25	-18.27
991.452	-18.7
991.653	-19.7
991.855	-20.61
992.057	-21.89
992.258	-21.88
992.46	-23
992.661	-22.12
992.863	-21.84
993.064	-21.97
993.265	-23.07
993.467	-25.55
993.668	-24.6
993.87	-24.3
994.071	-24.81
994.272	-24.79
994.473	-22.81
994.675	-22.12
994.876	-21.19
995.077	-19.94
995.278	-19.91
995.48	-18.6
995.681	-18.62
995.882	-16.85
996.083	-16.36
996.284	-21.58
996.485	-19.6
996.686	-20.56
996.887	-21.89
997.088	-26.77
997.289	-27.81
997.49	-27.84
997.691	-28.9
997.892	-28.49
998.092	-23.4
998.293	-22.14
998.494	-23.32
998.695	-24.65
998.896	-22.47
999.096	-23.67
999.297	-22.76
999.498	-25.68
999.698	-28.21
999.899	-30.38
1000.1	-32.86
1000.3	-32.12
1000.501	-31.91
1000.701	-32.66
1000.902	-33.82
1001.102	-34.18
1001.303	-32.2
1001.503	-34.21
1001.704	-32.44
1001.904	-34.58
1002.105	-36.41
1002.305	-36.5
1002.505	-36.87
1002.706	-40.25
1002.906	-39.68
1003.106	-39.7
1003.306	-37.46
1003.507	-36.69
1003.707	-37.03
1003.907	-34.51
1004.107	-33.41
1004.307	-36.22
1004.507	-34.85
1004.707	-35.07
1004.907	-35.45
1005.107	-36.65
1005.308	-35.39
1005.507	-37.55
1005.707	-34.32
1005.907	-32.66
1006.107	-28.92
1006.307	-25.96
1006.507	-26.93
1006.707	-26.42
1006.907	-25.17
1007.106	-25.49
1007.306	-25.97
1007.506	-25.82
1007.706	-26
1007.905	-28.47
1008.105	-28.01
1008.305	-28.25
1008.504	-27.36
1008.704	-21.57
1008.903	-18.69
1009.103	-16.87
1009.303	-19.82
1009.502	-19.2
1009.702	-19.39
1009.901	-18.33
1010.1	-22.97
1010.3	-20.6
1010.499	-22.69
1010.699	-25.11
1010.898	-25.79
1011.097	-25.11
1011.296	-25.24
1011.496	-26.4
1011.695	-25.03
1011.894	-25.74
1012.093	-22.16
1012.293	-22.48
1012.492	-24.44
1012.691	-24.2
1012.89	-24.3
1013.089	-27.74
1013.288	-25.51
1013.487	-25.31
1013.686	-26.02
1013.885	-27.46
1014.084	-27.78
1014.283	-27.95
1014.482	-28.46
1014.681	-29.23
1014.88	-33.14
1015.078	-32.94
1015.277	-35.19
1015.476	-34.78
1015.675	-34.87
1015.873	-34.19
1016.072	-36.38
1016.271	-31.66
1016.47	-37.04
1016.668	-34.61
1016.867	-34.72
1017.065	-37.27
1017.264	-38.39
1017.463	-38.65
1017.661	-38.22
1017.86	-38.96
1018.058	-38.49
1018.256	-41
1018.455	-42.54
1018.653	-40.66
1018.852	-39.76
1019.05	-41.23
1019.248	-42.24
1019.447	-44.31
1019.645	-44.43
1019.843	-45.7
1020.041	-43.57
1020.24	-42.47
1020.438	-37.62
1020.636	-37.99
1020.834	-39.53
1021.032	-37.7
1021.23	-38.73
1021.428	-35.89
1021.626	-31.07
1021.824	-30.49
1022.022	-32.63
1022.22	-30.23
1022.418	-30.71
1022.616	-30.46
1022.814	-31.42
1023.012	-31.54
1023.21	-27.88
1023.408	-27.38
1023.606	-27.69
1023.803	-23.08
1024.001	-23.14
1024.199	-27.04
1024.397	-26.44
1024.594	-25.58
1024.792	-28.04
1024.99	-27.55
1025.187	-27.77
1025.385	-23.02
1025.582	-21.87
1025.78	-23.6
1025.977	-21.81
1026.175	-20.46
1026.372	-20.98
1026.57	-24.17
1026.767	-21.8
1026.965	-20.34
1027.162	-20.81
1027.359	-21.11
1027.557	-22.7
1027.754	-26.69
1027.951	-28.32
1028.148	-24.89
1028.346	-26.89
1028.543	-29.5
1028.74	-29.16
1028.937	-31.88
1029.134	-31.95
1029.331	-32.88
1029.528	-32.64
1029.725	-34.34
1029.923	-38.74
1030.12	-34.51
1030.317	-32.12
1030.513	-30.9
1030.71	-30.3
1030.907	-28.72
1031.104	-30.72
1031.301	-31.54
1031.498	-30.65
1031.695	-31.67
1031.892	-29.71
1032.088	-30.64
1032.285	-33.43
1032.482	-34.28
1032.678	-38.02
1032.875	-39.71
1033.072	-39.82
1033.268	-39.39
1033.465	-38.93
1033.662	-39.72
1033.858	-39.29
1034.055	-38.16
1034.251	-36.5
1034.448	-36.49
1034.644	-35.96
1034.84	-32.55
1035.037	-28.31
1035.233	-28.25
1035.43	-26.02
1035.626	-27.63
1035.822	-26.33
1036.019	-26.84
1036.215	-30.01
1036.411	-30.81
1036.607	-32.7
1036.803	-36.16
1037	-35.73
1037.196	-35.97
1037.392	-36.19
1037.588	-39.32
1037.784	-37.96
1037.98	-40.01
1038.176	-40.87
1038.372	-40.05
1038.568	-37.03
1038.764	-34.64
1038.96	-32.64
1039.156	-32.85
1039.352	-33.52
1039.547	-32.62
1039.743	-32.71
1039.939	-29.82
1040.135	-31.54
1040.331	-34.28
1040.526	-31.23
1040.722	-32.92
1040.918	-34.74
1041.113	-39.01
1041.309	-38.46
1041.505	-41.9
1041.7	-39.66
1041.896	-39.41
1042.091	-40.04
1042.287	-40.41
1042.482	-39.53
1042.678	-39.21
1042.873	-36.95
1043.069	-38.47
1043.264	-37.68
1043.459	-35.65
1043.655	-35
1043.85	-36.58
1044.045	-34.28
1044.24	-33.52
1044.436	-32.62
1044.631	-34.83
1044.826	-34.53
1045.021	-37.26
1045.216	-37.53
