Data from FLMT021711__13__18-15-08-187.txt Node

Date: Tue Nov 05 18:15:08 CET 2024
User: Etudiants TP
Spectrometer: FLMT02171
Trigger mode: 0
Integration Time (sec): 1.000000E-1
Scans to average: 5
Electric dark correction enabled: true
Nonlinearity correction enabled: false
Boxcar width: 15
XAxis mode: Wavelengths
Number of Pixels in Spectrum: 3648
>>>>>Begin Spectral Data<<<<<
194.658	-74.52
194.923	-71.78
195.188	-62.99
195.453	-61.18
195.717	-54.66
195.982	-52.18
196.247	-50.95
196.512	-54.57
196.777	-53.15
197.042	-50.66
197.307	-49.59
197.572	-46
197.837	-45.94
198.101	-42.79
198.366	-38.75
198.631	-36.06
198.896	-28.86
199.161	-20.28
199.425	-10.98
199.69	-1.25
199.955	-0.84
200.22	-4.42
200.484	-5.6
200.749	-6.8
201.014	-5.35
201.278	-5.59
201.543	-5
201.807	-5.34
202.072	-2.8
202.337	-3.29
202.601	-3.28
202.866	-5.75
203.13	-3.88
203.395	-7.32
203.659	-7.81
203.924	-9.8
204.189	-9.73
204.453	-8.71
204.717	-4.62
204.982	-3.47
205.246	-2.2
205.511	-0.7
205.775	-1.32
206.04	4.84
206.304	5.38
206.568	6.74
206.833	6.26
207.097	7.6
207.361	8.44
207.626	11.45
207.89	13.15
208.154	14.35
208.419	16.19
208.683	16.79
208.947	20.08
209.211	19.51
209.476	20.31
209.74	22.56
210.004	22.97
210.268	22.37
210.532	25.08
210.796	26.25
211.061	27.87
211.325	27.82
211.589	27.14
211.853	28.3
212.117	28.27
212.381	28.67
212.645	28.1
212.909	27.5
213.173	25.04
213.437	25.32
213.701	25.06
213.965	26.06
214.229	20.61
214.493	18.93
214.757	17.13
215.021	16.52
215.285	21.25
215.549	24.03
215.813	20.85
216.077	19.99
216.34	22.08
216.604	21.03
216.868	21.51
217.132	23
217.396	22.31
217.659	21.89
217.923	17.07
218.187	17.56
218.451	16.16
218.714	13.79
218.978	13.06
219.242	15.51
219.505	16.24
219.769	18.02
220.033	17.82
220.296	20.83
220.56	20.89
220.824	20.58
221.087	20.12
221.351	19.88
221.614	19.57
221.878	21.93
222.142	20.87
222.405	20.53
222.669	23
222.932	19.41
223.196	17.56
223.459	13.43
223.722	13.99
223.986	13.29
224.249	11.83
224.513	12.14
224.776	11.71
225.04	10.84
225.303	10.19
225.566	10.54
225.83	12.55
226.093	15.76
226.356	13.69
226.62	14.02
226.883	16.56
227.146	18.33
227.409	16.04
227.673	13.54
227.936	12.61
228.199	12.78
228.462	8.51
228.725	8.51
228.989	8.08
229.252	10.03
229.515	16.54
229.778	15.14
230.041	14.28
230.304	12.37
230.567	13.38
230.83	12.32
231.093	14.24
231.356	14.8
231.619	20.82
231.882	18.84
232.145	21.3
232.408	21.08
232.671	18.83
232.934	19.31
233.197	17.81
233.46	15.5
233.723	16.38
233.986	14.56
234.249	11.34
234.512	11.88
234.775	13.95
235.037	12.58
235.3	10.99
235.563	12.5
235.826	14.32
236.089	16.79
236.351	16.09
236.614	19.55
236.877	20.44
237.14	22.81
237.402	22.47
237.665	15.85
237.928	14.53
238.19	11.36
238.453	14.26
238.716	13.95
238.978	13.51
239.241	11.71
239.503	15.02
239.766	9.66
240.029	8.95
240.291	12.32
240.554	12.16
240.816	12.52
241.079	11.9
241.341	12.98
241.604	11.96
241.866	8.98
242.129	11.83
242.391	14.72
242.653	14.8
242.916	14.56
243.178	12.91
243.441	14.7
243.703	13.5
243.965	11.48
244.228	11.09
244.49	10.63
244.752	10.53
245.015	10.27
245.277	12.22
245.539	11.6
245.801	12.75
246.064	13.08
246.326	11.86
246.588	10.19
246.85	13.15
247.112	13.52
247.374	15.62
247.637	17.77
247.899	17.69
248.161	17.39
248.423	12.3
248.685	13.12
248.947	12.84
249.209	14.64
249.471	14.85
249.733	17.19
249.995	15.39
250.257	14.1
250.519	11.87
250.781	15.06
251.043	13.14
251.305	16.17
251.567	16.72
251.829	16.17
252.091	16.34
252.353	11.48
252.615	12.66
252.876	10.27
253.138	8.41
253.4	4.84
253.662	6.2
253.924	8.52
254.185	10.15
254.447	10.62
254.709	10.4
254.971	10.52
255.232	11.9
255.494	10.42
255.756	6.69
256.017	7.4
256.279	8.07
256.541	7.83
256.802	7.08
257.064	7.82
257.326	5.86
257.587	7.05
257.849	7.1
258.11	10.23
258.372	10.65
258.633	12.82
258.895	11.17
259.156	10.54
259.418	8.25
259.679	3.97
259.941	2.22
260.202	3.78
260.464	7.39
260.725	6.83
260.987	7.58
261.248	8.77
261.509	9.05
261.771	6.89
262.032	8.27
262.293	8.46
262.555	9.11
262.816	7.61
263.077	5.51
263.338	2.24
263.6	3.98
263.861	2.93
264.122	1.66
264.383	3.71
264.645	4.73
264.906	4.19
265.167	4.08
265.428	3.81
265.689	5.69
265.95	3.8
266.211	5.96
266.473	5.69
266.734	-0.06
266.995	-3.18
267.256	-2.41
267.517	0.56
267.778	4.97
268.039	6.87
268.3	6.48
268.561	3.31
268.822	6.31
269.083	3.12
269.344	0.29
269.604	0.12
269.865	0.52
270.126	-3.54
270.387	-3.42
270.648	-2.56
270.909	-1.99
271.17	-2.15
271.43	-4.16
271.691	-7.02
271.952	-7.52
272.213	-3.7
272.473	-6.18
272.734	-4.18
272.995	-3.38
273.256	-2.33
273.516	0.51
273.777	-2.66
274.038	-1.2
274.298	-4.13
274.559	-4.32
274.82	2.58
275.08	5.68
275.341	8.24
275.601	7.09
275.862	4.3
276.122	4.59
276.383	4.76
276.643	6.54
276.904	5.06
277.164	9.74
277.425	10.13
277.685	13.89
277.946	14.14
278.206	14.72
278.467	16.24
278.727	16.64
278.987	17.82
279.248	16.37
279.508	18.91
279.768	21.44
280.029	22.84
280.289	17.81
280.549	15.71
280.81	14.57
281.07	14.22
281.33	15.73
281.59	13.54
281.851	16.28
282.111	16.44
282.371	15.71
282.631	15.82
282.891	14.18
283.151	12.08
283.412	9.05
283.672	8.39
283.932	8.72
284.192	9.03
284.452	6.34
284.712	5.12
284.972	3.88
285.232	0.83
285.492	3.65
285.752	-0.08
286.012	6.81
286.272	9.7
286.532	7.24
286.792	7.62
287.052	8.42
287.312	9.82
287.571	7.89
287.831	7.83
288.091	5.21
288.351	6.92
288.611	12.39
288.871	11.43
289.13	10.96
289.39	6.56
289.65	7.22
289.91	4.47
290.17	7.14
290.429	10.87
290.689	8.35
290.949	5.48
291.208	7.43
291.468	10.83
291.728	11.13
291.987	13.9
292.247	12.31
292.506	16.1
292.766	19.05
293.026	17.8
293.285	19.91
293.545	22.89
293.804	24.05
294.064	20.25
294.323	17.54
294.583	17.72
294.842	17.83
295.102	17.79
295.361	16.78
295.621	17.46
295.88	17.38
296.139	17.31
296.399	17.22
296.658	11.72
296.917	12.77
297.177	10.16
297.436	11.44
297.695	10.56
297.955	12.6
298.214	11.04
298.473	12.26
298.732	16.59
298.992	19.53
299.251	19.48
299.51	15.7
299.769	16.82
300.028	15.88
300.287	17.32
300.547	16.85
300.806	14.47
301.065	17.69
301.324	17.85
301.583	13.77
301.842	10.61
302.101	7.85
302.36	9.36
302.619	9.21
302.878	9.83
303.137	8.64
303.396	11.46
303.655	14.2
303.914	11.25
304.173	12.31
304.432	12.21
304.691	14.36
304.95	11.35
305.208	16.69
305.467	17.36
305.726	16.03
305.985	15.32
306.244	16.64
306.503	14.23
306.761	11.47
307.02	7.08
307.279	7.82
307.537	9.22
307.796	6.37
308.055	3.63
308.314	4.24
308.572	1.18
308.831	2.15
309.09	3.78
309.348	4.99
309.607	4.33
309.865	7.96
310.124	8.5
310.382	8.69
310.641	9.82
310.9	8.29
311.158	9.8
311.417	6.98
311.675	6.56
311.933	8.51
312.192	8.8
312.45	8.04
312.709	8.91
312.967	8.94
313.226	7.51
313.484	6.79
313.742	6.32
314.001	4.56
314.259	1.95
314.517	4
314.776	6.34
315.034	9.53
315.292	6.79
315.55	4.11
315.809	3.07
316.067	3.05
316.325	1.16
316.583	3.99
316.841	3.52
317.1	0.47
317.358	-2.6
317.616	-3.29
317.874	-5.43
318.132	-6.95
318.39	-6.78
318.648	-7.55
318.906	-7.54
319.164	-9.34
319.422	-8.24
319.68	-9.32
319.938	-9.47
320.196	-8.15
320.454	-5.86
320.712	-6.35
320.97	-6.3
321.228	-8.55
321.486	-6.2
321.744	-4.11
322.002	-0.96
322.26	-1.48
322.517	-3.12
322.775	-6.22
323.033	-8.19
323.291	-4.83
323.549	-1.35
323.806	1.28
324.064	2.02
324.322	4.19
324.58	2.11
324.837	4.22
325.095	1.13
325.353	3
325.61	3.95
325.868	3.68
326.126	6.66
326.383	5.01
326.641	3.71
326.898	4.2
327.156	5.18
327.413	4.83
327.671	4.8
327.928	6.34
328.186	6.67
328.443	5.5
328.701	8.82
328.958	11.88
329.216	13.44
329.473	10.97
329.731	9.94
329.988	9.68
330.245	11.14
330.503	12.28
330.76	13.38
331.017	16.21
331.275	11.73
331.532	9.71
331.789	6.55
332.047	6.46
332.304	3.17
332.561	3.61
332.818	1.72
333.076	4.71
333.333	5.23
333.59	6.91
333.847	9.75
334.104	8
334.361	7.68
334.618	6.57
334.876	4.9
335.133	3.36
335.39	1.67
335.647	2.07
335.904	-0.61
336.161	-3.95
336.418	-3.89
336.675	-8.38
336.932	-8.02
337.189	-7.74
337.446	-6.33
337.703	-6.19
337.96	-10.17
338.216	-9.2
338.473	-11.16
338.73	-11.76
338.987	-11.07
339.244	-6.13
339.501	-7.75
339.757	-4.57
340.014	-3.2
340.271	-2.22
340.528	-2.5
340.785	2.34
341.041	2.99
341.298	-0.15
341.555	-1.25
341.811	-1.77
342.068	-4.66
342.325	-4.8
342.581	-1.37
342.838	0.92
343.094	2.39
343.351	4.15
343.608	1.97
343.864	4.08
344.121	5.59
344.377	4.74
344.634	3.73
344.89	1.48
345.147	0.03
345.403	-1.89
345.66	-2.04
345.916	0.61
346.172	-1.92
346.429	-3.63
346.685	-5.81
346.942	-6.12
347.198	-10.34
347.454	-9.61
347.711	-11
347.967	-13.68
348.223	-11.32
348.48	-10.75
348.736	-8.46
348.992	-8.84
349.248	-5.66
349.504	-5.33
349.761	-6.07
350.017	-3.96
350.273	-4.26
350.529	-5.25
350.785	-7.16
351.041	-9.21
351.297	-8.55
351.554	-8.92
351.81	-10.77
352.066	-11.29
352.322	-10.77
352.578	-9.71
352.834	-11.07
353.09	-10.76
353.346	-9.75
353.602	-10.41
353.858	-11.88
354.114	-11.94
354.369	-9.64
354.625	-4.87
354.881	-7.46
355.137	-4.44
355.393	-3.67
355.649	-2.86
355.905	-3.06
356.16	-4.72
356.416	-4.73
356.672	-12.66
356.928	-13.05
357.183	-13.78
357.439	-14.34
357.695	-16.46
357.951	-13.39
358.206	-13.36
358.462	-15.2
358.718	-16.75
358.973	-14.4
359.229	-14.06
359.484	-12.08
359.74	-9.57
359.996	-8.84
360.251	-5.38
360.507	-4.61
360.762	-4.58
361.018	-1.46
361.273	-2.41
361.529	-0.15
361.784	1.38
362.04	3.51
362.295	3.3
362.55	2.86
362.806	5.85
363.061	5.37
363.316	6.35
363.572	7.15
363.827	9.51
364.082	7
364.338	7.99
364.593	8.99
364.848	10.28
365.104	8.65
365.359	12.29
365.614	12.59
365.869	10.66
366.124	11.56
366.38	12.12
366.635	14.42
366.89	15.83
367.145	15.01
367.4	17.11
367.655	18.15
367.91	18.78
368.165	16.38
368.42	12.97
368.675	13.64
368.93	13.66
369.185	10.45
369.44	9.13
369.695	10.01
369.95	7.23
370.205	5.67
370.46	3.47
370.715	2.67
370.97	3.3
371.225	3.63
371.48	5.32
371.734	6.53
371.989	7.84
372.244	7.42
372.499	9.05
372.754	7.77
373.008	5.79
373.263	0.59
373.518	4.3
373.773	1.73
374.027	0.3
374.282	3.07
374.537	4.07
374.791	4.81
375.046	4.25
375.301	2.75
375.555	-0.34
375.81	0.6
376.064	0.55
376.319	5.11
376.573	5.77
376.828	1.46
377.082	6.64
377.337	4.93
377.591	2.95
377.846	4.99
378.1	7.94
378.355	9.9
378.609	9.65
378.863	7.12
379.118	8.51
379.372	6.31
379.627	3.28
379.881	3.26
380.135	2.71
380.389	3.16
380.644	3.62
380.898	4.98
381.152	5.63
381.407	5.5
381.661	9.08
381.915	10.4
382.169	9.46
382.423	6.91
382.677	2.31
382.932	2.32
383.186	2.93
383.44	3.83
383.694	5.37
383.948	3.2
384.202	1.37
384.456	3.39
384.71	4.68
384.964	2.38
385.218	5.02
385.472	4.72
385.726	3.4
385.98	3.28
386.234	2.77
386.488	-0.74
386.742	-0.02
386.996	-3.02
387.249	-2.35
387.503	1.45
387.757	2.25
388.011	3.25
388.265	2.53
388.518	2.31
388.772	4.65
389.026	6.43
389.28	2.25
389.533	0.21
389.787	2.91
390.041	0.09
390.295	1.29
390.548	2.94
390.802	5.62
391.055	5.09
391.309	4.91
391.563	3.54
391.816	5.35
392.07	5.03
392.323	5.46
392.577	6.05
392.83	7.38
393.084	12.61
393.337	16.19
393.591	17.83
393.844	18.14
394.098	21.43
394.351	25.85
394.604	28.21
394.858	30.48
395.111	30.26
395.364	27.02
395.618	28.99
395.871	26.2
396.124	24.69
396.378	25.5
396.631	24.31
396.884	22.41
397.137	23.54
397.391	24.51
397.644	20.39
397.897	22.57
398.15	22.82
398.403	24.69
398.657	23.66
398.91	21.96
399.163	22.8
399.416	21.78
399.669	19.57
399.922	18.92
400.175	16.64
400.428	18.23
400.681	22.34
400.934	20.91
401.187	24.47
401.44	27.95
401.693	28.3
401.946	25.13
402.199	22.31
402.452	21.61
402.704	17.92
402.957	16.72
403.21	19.41
403.463	17.59
403.716	19.75
403.969	21.62
404.221	20.33
404.474	23.3
404.727	26.41
404.98	28.68
405.232	29.48
405.485	32.13
405.738	33.86
405.99	34.98
406.243	35.91
406.496	37.59
406.748	37.82
407.001	36.7
407.253	37.47
407.506	38.25
407.759	39.59
408.011	37.81
408.264	36.75
408.516	33.59
408.769	27.19
409.021	22.85
409.274	19.18
409.526	18.35
409.778	15.81
410.031	17.92
410.283	16.29
410.536	22.46
410.788	22.45
411.04	21.8
411.293	24.36
411.545	25.56
411.797	23.59
412.049	22.7
412.302	22.56
412.554	24.22
412.806	21.44
413.058	18.79
413.311	18.76
413.563	17.86
413.815	17.83
414.067	14.61
414.319	12.56
414.571	14.47
414.823	12.23
415.075	10.63
415.328	10.7
415.58	13.35
415.832	15.58
416.084	15.17
416.336	13.63
416.588	17.85
416.84	15.44
417.091	18.74
417.343	15.44
417.595	18.06
417.847	18.08
418.099	19.38
418.351	17.47
418.603	18.96
418.855	19.53
419.106	17.98
419.358	17.4
419.61	18.65
419.862	20.98
420.114	18.44
420.365	16.1
420.617	17.14
420.869	15.84
421.12	15.79
421.372	15.23
421.624	13.89
421.875	14.37
422.127	11.58
422.379	12.16
422.63	15.91
422.882	14.35
423.133	15.77
423.385	15.35
423.636	16.05
423.888	18.38
424.139	21.19
424.391	18.8
424.642	18.1
424.894	14.74
425.145	15.08
425.396	12.26
425.648	14.67
425.899	13.4
426.151	14.1
426.402	13.7
426.653	12.97
426.905	12.4
427.156	10.46
427.407	9.58
427.658	8.11
427.91	6.9
428.161	5.98
428.412	8.04
428.663	10.02
428.914	10.45
429.166	11.61
429.417	11.95
429.668	11.71
429.919	9.21
430.17	7.04
430.421	6.23
430.672	9.44
430.923	8.11
431.174	6.98
431.425	9.28
431.676	12.93
431.927	15.85
432.178	25.31
432.429	35.22
432.68	42.24
432.931	51.07
433.182	59.38
433.433	61.35
433.683	64.71
433.934	63.76
434.185	62.83
434.436	61.23
434.687	62.73
434.937	64.89
435.188	64.06
435.439	63.21
435.69	64.12
435.94	63.6
436.191	63.8
436.442	62.91
436.692	61.11
436.943	58.98
437.194	58.6
437.444	60.04
437.695	65.58
437.945	66.45
438.196	64.89
438.447	64.54
438.697	65.08
438.948	62.61
439.198	56.5
439.449	48.56
439.699	42.2
439.949	33.13
440.2	22.92
440.45	17.48
440.701	10.08
440.951	5.14
441.201	1.5
441.452	-2.11
441.702	-3.75
441.952	-3.71
442.203	-2.59
442.453	-4.83
442.703	-5.75
442.953	-5.1
443.204	-4.59
443.454	-7.32
443.704	-6.64
443.954	-10.76
444.204	-10.7
444.455	-8.62
444.705	-7.46
444.955	-8.27
445.205	-10.35
445.455	-13.54
445.705	-14.34
445.955	-13.65
446.205	-15.14
446.455	-14.95
446.705	-14.11
446.955	-12.49
447.205	-11.11
447.455	-10.39
447.705	-11.18
447.955	-11.28
448.205	-11.19
448.454	-11.24
448.704	-11.34
448.954	-13.01
449.204	-13.02
449.454	-11.9
449.704	-13.69
449.953	-15.5
450.203	-13.3
450.453	-15.03
450.703	-12.06
450.952	-11.87
451.202	-10.22
451.452	-12.45
451.701	-9.78
451.951	-5.42
452.201	-6.11
452.45	-6.71
452.7	-5.25
452.949	-4.69
453.199	-5.53
453.448	-4.01
453.698	-4.16
453.947	-4.84
454.197	-6.27
454.446	-7.02
454.696	-3.59
454.945	-5.24
455.195	-5.96
455.444	-5.77
455.693	-2.49
455.943	-4.61
456.192	-4.11
456.442	-4.63
456.691	-6.04
456.94	-6.01
457.189	-7.58
457.439	-4.95
457.688	-3.32
457.937	-3.98
458.186	-3.35
458.436	-5.1
458.685	-4.13
458.934	-5.24
459.183	-4.7
459.432	-2.33
459.681	-2.07
459.93	-3.81
460.179	-4.26
460.429	-5.64
460.678	-1.86
460.927	2.24
461.176	1.81
461.425	2.27
461.674	5.45
461.923	4.89
462.172	3.98
462.42	2.05
462.669	5.57
462.918	4.93
463.167	3.45
463.416	0.08
463.665	0.25
463.914	0.37
464.162	-0.82
464.411	1.27
464.66	3.16
464.909	2.06
465.158	2.73
465.406	3.45
465.655	4.51
465.904	6.38
466.152	7.26
466.401	7.14
466.65	9.31
466.898	8.82
467.147	5.62
467.395	4.02
467.644	6.88
467.893	6.4
468.141	6.12
468.39	2.05
468.638	-0.71
468.887	-2.01
469.135	-1.6
469.384	-2.16
469.632	0.7
469.88	1.8
470.129	3.09
470.377	-0.76
470.626	2.04
470.874	5.21
471.122	7.69
471.371	6.74
471.619	5.95
471.867	9.38
472.115	9.46
472.364	7.34
472.612	11.48
472.86	9.81
473.108	9.58
473.356	10
473.605	8.93
473.853	7.29
474.101	6.65
474.349	5.81
474.597	9.06
474.845	8.04
475.093	6.26
475.341	3.79
475.589	4.26
475.837	5.93
476.085	7.42
476.333	6.37
476.581	8.26
476.829	7.14
477.077	9.84
477.325	8.73
477.573	10.65
477.821	8.87
478.069	10.46
478.317	10.57
478.564	14.24
478.812	11.74
479.06	11.91
479.308	11.13
479.555	10.96
479.803	9.59
480.051	12.24
480.299	11.25
480.546	12.08
480.794	10.44
481.042	10.85
481.289	11.81
481.537	14.98
481.784	15.96
482.032	20.9
482.28	21.59
482.527	22.58
482.775	25.33
483.022	28.41
483.27	32.35
483.517	37.92
483.765	39.8
484.012	42.43
484.259	42.45
484.507	47.32
484.754	50.21
485.002	51.75
485.249	52.61
485.496	58.19
485.744	60.26
485.991	61.4
486.238	58.18
486.486	63.79
486.733	65.57
486.98	69.7
487.227	67.67
487.474	70.78
487.722	72.76
487.969	70.65
488.216	70.86
488.463	72.3
488.71	71.28
488.957	69.79
489.204	68.9
489.451	69.22
489.699	68.26
489.946	65.02
490.193	64.23
490.44	63.08
490.687	61.88
490.934	57.09
491.18	51.63
491.427	51.62
491.674	53.38
491.921	51.47
492.168	48.25
492.415	43.37
492.662	43.72
492.909	44.51
493.155	41.48
493.402	38.63
493.649	35.37
493.896	35.48
494.142	28.39
494.389	26.38
494.636	23.02
494.883	22.32
495.129	20.07
495.376	17.56
495.623	19.35
495.869	20.9
496.116	20.87
496.362	20.95
496.609	24.49
496.855	28.56
497.102	26.89
497.348	24
497.595	24.44
497.841	28.35
498.088	26.79
498.334	26.9
498.581	26.34
498.827	25.08
499.074	25.26
499.32	25.9
499.566	28.87
499.813	28.98
500.059	27.02
500.305	25.65
500.552	22.57
500.798	19.87
501.044	24.08
501.29	22.22
501.537	17.9
501.783	22.21
502.029	25.47
502.275	23.08
502.521	20.36
502.767	20.08
503.013	22.96
503.26	19.98
503.506	14.71
503.752	14.7
503.998	12.59
504.244	12.06
504.49	8.3
504.736	8.89
504.982	7.87
505.228	9.88
505.474	8.76
505.72	9.48
505.966	7.5
506.211	10.22
506.457	11.43
506.703	7.72
506.949	5.31
507.195	3.44
507.441	0.79
507.686	3.56
507.932	3.62
508.178	6.21
508.424	4.37
508.669	0.94
508.915	0.7
509.161	3.95
509.406	2.65
509.652	0.87
509.898	3.98
510.143	4.95
510.389	3.74
510.634	-1.79
510.88	1.12
511.125	5.26
511.371	5.76
511.616	8.05
511.862	4.74
512.107	0.86
512.353	0.96
512.598	1.62
512.844	-0.49
513.089	-2.91
513.335	-2.5
513.58	-3.64
513.825	-4.23
514.071	-6.88
514.316	-6.11
514.561	-5.57
514.806	-5.84
515.052	-4.05
515.297	-6.88
515.542	-5.26
515.787	-5.24
516.033	-2.52
516.278	-1.45
516.523	-1.32
516.768	-2.2
517.013	-3.76
517.258	-3.68
517.503	-4.57
517.748	-4.69
517.993	-4.65
518.238	-4.46
518.483	-6.82
518.728	-9
518.973	-9.69
519.218	-11.52
519.463	-9.66
519.708	-9.7
519.953	-9.72
520.198	-10.15
520.443	-8.91
520.688	-6.55
520.933	-6.65
521.177	-4.98
521.422	-7.92
521.667	-4.64
521.912	-5.53
522.157	-8.92
522.401	-6.98
522.646	-7.21
522.891	-5.74
523.135	-6.26
523.38	-6.28
523.625	-7.14
523.869	-5.18
524.114	-3.45
524.358	-4.33
524.603	-4.48
524.848	-6.86
525.092	-6.74
525.337	-4.03
525.581	-2.72
525.826	-0.24
526.07	1.32
526.315	2.83
526.559	1.47
526.803	-0.23
527.048	2.36
527.292	2.42
527.537	2.48
527.781	2.81
528.025	0.24
528.269	1.92
528.514	2.34
528.758	1.03
529.002	2.97
529.247	7.26
529.491	6.98
529.735	12.34
529.979	12.73
530.223	15.48
530.467	13.3
530.712	11.37
530.956	10.19
531.2	12.24
531.444	10.32
531.688	13.25
531.932	13.6
532.176	15.95
532.42	18.44
532.664	21.01
532.908	19.55
533.152	19.3
533.396	20.36
533.64	21.07
533.884	20.95
534.128	23.23
534.371	28.81
534.615	32.49
534.859	35.83
535.103	38.66
535.347	42.86
535.59	50.23
535.834	51.41
536.078	59.12
536.322	67.48
536.565	78.12
536.809	85.58
537.053	100.23
537.296	111.77
537.54	128.88
537.784	147.86
538.027	174.08
538.271	199.19
538.514	224.24
538.758	248.42
539.001	271.76
539.245	295.18
539.488	320.2
539.732	345.32
539.975	369.11
540.219	392.85
540.462	415.35
540.706	440
540.949	459.5
541.192	480.63
541.436	506.5
541.679	534.84
541.922	565.13
542.166	594.59
542.409	634.51
542.652	676.16
542.895	720.32
543.139	757.11
543.382	794.99
543.625	821.43
543.868	846.38
544.111	864.29
544.354	876.72
544.598	884.23
544.841	888.91
545.084	887.78
545.327	880.38
545.57	871.14
545.813	860.82
546.056	846.44
546.299	832.51
546.542	820.12
546.785	807.96
547.028	793.02
547.271	776.2
547.514	759.86
547.756	741.16
547.999	726.81
548.242	710.76
548.485	693.9
548.728	678.14
548.971	656.48
549.213	636.06
549.456	606.31
549.699	574.71
549.942	536.39
550.184	495.29
550.427	450.3
550.67	411.06
550.912	371.02
551.155	340.58
551.398	309.98
551.64	284.16
551.883	262.85
552.125	243.03
552.368	225.26
552.61	206.5
552.853	195.19
553.095	180.36
553.338	167.07
553.58	157.35
553.823	146.04
554.065	138
554.308	123.82
554.55	114.01
554.792	103.85
555.035	94.9
555.277	86.89
555.519	80.29
555.762	70.86
556.004	66.32
556.246	57.88
556.488	54.6
556.731	45.68
556.973	42.47
557.215	37.51
557.457	34.98
557.699	34.29
557.941	29.78
558.183	26.3
558.426	25.94
558.668	20.07
558.91	19.35
559.152	17.33
559.394	13.15
559.636	14.03
559.878	13.92
560.12	13.2
560.362	13.63
560.604	12.13
560.845	12.15
561.087	11.52
561.329	12.14
561.571	9.94
561.813	11.34
562.055	10.66
562.297	10.78
562.538	11.47
562.78	14.87
563.022	11.72
563.264	13.62
563.505	12.22
563.747	13.04
563.989	10.44
564.23	10.82
564.472	9.48
564.714	11.05
564.955	11.64
565.197	7.98
565.438	9.07
565.68	12.99
565.921	10.83
566.163	11.97
566.404	9.53
566.646	11.58
566.887	14.53
567.129	13.29
567.37	12.56
567.612	15.47
567.853	11.53
568.094	13.45
568.336	11.99
568.577	11.64
568.818	12.34
569.06	8.67
569.301	5.63
569.542	5.35
569.783	7.47
570.025	6.46
570.266	5.93
570.507	7.06
570.748	6.15
570.989	7.47
571.23	9.6
571.472	10.67
571.713	9.2
571.954	11.49
572.195	10.08
572.436	11.56
572.677	16.85
572.918	24.26
573.159	28.7
573.4	35.91
573.641	45.69
573.882	58.91
574.123	66.31
574.364	69.93
574.604	79.56
574.845	87
575.086	96.75
575.327	109.11
575.568	120.45
575.809	133.11
576.049	144.28
576.29	152.71
576.531	170.28
576.771	184.58
577.012	197.68
577.253	209.25
577.494	219.19
577.734	227.26
577.975	237.26
578.215	246.36
578.456	252.33
578.697	260.57
578.937	271.65
579.178	281.08
579.418	288.54
579.659	297.97
579.899	305.01
580.14	311.52
580.38	315.55
580.62	320.5
580.861	328.05
581.101	329.96
581.342	329.71
581.582	327.8
581.822	333.84
582.063	335.05
582.303	337.96
582.543	337.43
582.783	339.2
583.024	340.69
583.264	345.17
583.504	346.17
583.744	357.79
583.984	362.12
584.224	370.41
584.465	375.52
584.705	381.94
584.945	389.03
585.185	395.48
585.425	401.36
585.665	403.56
585.905	405.71
586.145	407.59
586.385	405.83
586.625	408.19
586.865	406.81
587.105	404.6
587.345	402.24
587.585	399.57
587.824	396.64
588.064	393.24
588.304	388.76
588.544	387.41
588.784	387.03
589.024	391.69
589.263	394
589.503	399.95
589.743	409.44
589.982	415.45
590.222	421.7
590.462	423.76
590.701	423.38
590.941	425.75
591.181	417.87
591.42	410.36
591.66	404.71
591.899	401.46
592.139	390.75
592.378	383.85
592.618	375.51
592.857	368.43
593.097	364.24
593.336	360.52
593.576	355.41
593.815	353.44
594.055	349.77
594.294	348.1
594.533	346.98
594.773	347.38
595.012	350.04
595.251	351.62
595.491	355.87
595.73	359
595.969	361.86
596.208	363.25
596.447	368.84
596.687	368.51
596.926	362.74
597.165	353.08
597.404	349.75
597.643	339.85
597.882	331.78
598.121	326.55
598.36	321.35
598.599	315.67
598.838	309.22
599.077	300.64
599.316	294.34
599.555	290.81
599.794	287.54
600.033	284.8
600.272	282.98
600.511	278.59
600.75	278.91
600.989	278.59
601.228	277.27
601.466	276.42
601.705	275.8
601.944	275.74
602.183	275.16
602.422	270.14
602.66	265.51
602.899	260.86
603.138	255.56
603.376	250.37
603.615	246.22
603.854	237.41
604.092	233.49
604.331	232.66
604.569	232.1
604.808	230.04
605.047	235.12
605.285	240.86
605.524	247.21
605.762	256.22
606	274.46
606.239	298.44
606.477	327.26
606.716	363.95
606.954	420.8
607.193	498.58
607.431	604.01
607.669	734.97
607.908	889.55
608.146	1057.97
608.384	1227.02
608.622	1388.78
608.861	1540.64
609.099	1679.88
609.337	1809.06
609.575	1926.47
609.813	2033.35
610.052	2128.59
610.29	2208.33
610.528	2281.64
610.766	2346.85
611.004	2407.79
611.242	2462.9
611.48	2512.77
611.718	2554.88
611.956	2595.06
612.194	2627.67
612.432	2654.72
612.67	2675.91
612.908	2694.85
613.146	2703.91
613.384	2706.64
613.621	2701.94
613.859	2690.61
614.097	2663.77
614.335	2620.09
614.573	2551.99
614.811	2456.66
615.048	2332.25
615.286	2187.79
615.524	2027.99
615.761	1861.05
615.999	1704.23
616.237	1557.53
616.474	1425.28
616.712	1302.33
616.95	1187.01
617.187	1086.11
617.425	997.59
617.662	920.39
617.9	848.54
618.137	784.25
618.375	725.93
618.612	671.02
618.85	624.72
619.087	584.57
619.325	545.8
619.562	510.58
619.799	480.06
620.037	454.7
620.274	430.5
620.511	416.01
620.749	397.44
620.986	384.27
621.223	372.11
621.461	366.03
621.698	362.44
621.935	359.32
622.172	355.73
622.409	358.3
622.647	358.2
622.884	356.88
623.121	361.92
623.358	362.85
623.595	364.89
623.832	367.8
624.069	368.63
624.306	372.75
624.543	377.06
624.78	378.79
625.017	379.75
625.254	383.75
625.491	386.98
625.728	389.05
625.965	391.36
626.202	391.46
626.438	393.05
626.675	394.04
626.912	402.54
627.149	409.48
627.386	419.23
627.622	427.83
627.859	435.78
628.096	446.37
628.333	454.73
628.569	461.69
628.806	468.97
629.043	470.04
629.279	470.97
629.516	471.2
629.752	463.87
629.989	459.08
630.225	450.79
630.462	444.13
630.699	434.89
630.935	424.64
631.171	410.48
631.408	399.45
631.644	387.97
631.881	374.57
632.117	362.13
632.354	353.43
632.59	343.15
632.826	333
633.063	322.98
633.299	314.45
633.535	302.13
633.771	290.74
634.008	283.22
634.244	268.47
634.48	251.28
634.716	233.53
634.953	214.28
635.189	194.47
635.425	176.6
635.661	159.95
635.897	141.44
636.133	124.93
636.369	110.48
636.605	95.66
636.841	85.4
637.077	79.1
637.313	72.28
637.549	67.93
637.785	63.13
638.021	61.04
638.257	58.52
638.493	60.35
638.729	58.29
638.965	59.4
639.2	60.32
639.436	59.42
639.672	57.62
639.908	53.03
640.144	57.72
640.379	58.92
640.615	55.69
640.851	57.8
641.086	57.91
641.322	54.51
641.558	53.46
641.793	54.03
642.029	52.4
642.264	50.86
642.5	50.51
642.736	46.76
642.971	47.72
643.207	46.07
643.442	44.45
643.678	44.07
643.913	45.84
644.148	44.11
644.384	46.89
644.619	46.58
644.855	46.73
645.09	46.44
645.325	46.94
645.561	47.59
645.796	45.37
646.031	48.58
646.266	47.92
646.502	46.69
646.737	51.63
646.972	53.74
647.207	59.44
647.442	58.85
647.678	60.21
647.913	66.09
648.148	70.78
648.383	72.13
648.618	75.43
648.853	79.15
649.088	84.42
649.323	89.94
649.558	93.77
649.793	96.13
650.028	99.23
650.263	96.35
650.498	101.14
650.733	102.74
650.968	103.14
651.202	106.58
651.437	106.92
651.672	103.19
651.907	103.84
652.142	106.56
652.376	107.39
652.611	110.1
652.846	111.34
653.081	112.24
653.315	110.43
653.55	109.68
653.785	107.5
654.019	106.05
654.254	102.04
654.488	99.78
654.723	93.78
654.958	86.83
655.192	83.09
655.427	75.14
655.661	72.61
655.896	70.8
656.13	70.27
656.364	64.11
656.599	57.88
656.833	59.55
657.068	59.28
657.302	58.28
657.536	54.98
657.771	55.64
658.005	53.99
658.239	56.29
658.474	53.33
658.708	55.03
658.942	55.76
659.176	55.03
659.41	53.11
659.645	53.75
659.879	53.75
660.113	51.68
660.347	51.8
660.581	51.22
660.815	51.83
661.049	53.48
661.283	49.97
661.517	48.87
661.751	48.53
661.985	47.73
662.219	50.08
662.453	48.22
662.687	49.82
662.921	47.66
663.155	47.68
663.389	40.7
663.622	38.14
663.856	41.29
664.09	35.68
664.324	34.54
664.558	33.3
664.791	32.31
665.025	30.23
665.259	30.83
665.492	27.31
665.726	29.18
665.96	27.97
666.193	25.41
666.427	25.6
666.661	23.43
666.894	19.45
667.128	15.87
667.361	17.26
667.595	14.3
667.828	12.34
668.062	9.88
668.295	8.86
668.529	10.15
668.762	10.75
668.995	8.64
669.229	12.6
669.462	13.29
669.695	13.14
669.929	10.69
670.162	11.36
670.395	8.56
670.629	9.56
670.862	13.03
671.095	7.94
671.328	9.13
671.561	6.3
671.795	8.12
672.028	10.52
672.261	11.21
672.494	12.51
672.727	11.36
672.96	10.44
673.193	8.87
673.426	11.99
673.659	10.19
673.892	9.93
674.125	10.66
674.358	11.79
674.591	9.07
674.824	8.64
675.057	7.72
675.29	6.9
675.523	8.61
675.755	7.48
675.988	7.86
676.221	11.36
676.454	10.28
676.687	10.5
676.919	9.67
677.152	9.28
677.385	8.56
677.617	10.65
677.85	12.84
678.083	11.66
678.315	15.47
678.548	13.36
678.78	12.95
679.013	11.85
679.246	12.55
679.478	14.26
679.711	12.05
679.943	15.13
680.175	13.52
680.408	18.27
680.64	15.32
680.873	17.08
681.105	19.12
681.338	22.29
681.57	21.03
681.802	23.51
682.034	23.67
682.267	26.88
682.499	28.56
682.731	26.53
682.964	24.91
683.196	23.02
683.428	21.73
683.66	20.6
683.892	24.56
684.124	29.5
684.356	36.49
684.589	38.06
684.821	37.23
685.053	38.66
685.285	40.62
685.517	43.43
685.749	47.23
685.981	50.1
686.213	51.8
686.445	53.3
686.676	49.26
686.908	49.45
687.14	46.83
687.372	47.29
687.604	42.33
687.836	43.79
688.068	43.59
688.299	42.81
688.531	40.54
688.763	44.8
688.995	42.6
689.226	46.47
689.458	44.86
689.69	43.22
689.921	42.51
690.153	45.09
690.384	48.48
690.616	47.3
690.848	47.81
691.079	44.36
691.311	39.49
691.542	34.62
691.774	32.73
692.005	34.92
692.237	35.85
692.468	32.8
692.699	29.9
692.931	28.06
693.162	24.96
693.393	22.22
693.625	19.41
693.856	20.57
694.087	20.66
694.319	23.3
694.55	22.99
694.781	21.95
695.012	20.74
695.243	17.68
695.475	16.5
695.706	16.67
695.937	14.89
696.168	13.54
696.399	9.98
696.63	9.6
696.861	10.8
697.092	15.44
697.323	16.93
697.554	16.35
697.785	15.16
698.016	14.48
698.247	12.85
698.478	14.21
698.709	14.76
698.94	16.51
699.171	15.78
699.401	12.11
699.632	13.36
699.863	9.83
700.094	9.18
700.325	11.4
700.555	14.02
700.786	16.12
701.017	16.95
701.247	16.45
701.478	16.97
701.709	18.62
701.939	18.43
702.17	21.84
702.401	26.97
702.631	30.31
702.862	31.5
703.092	32.48
703.323	40.03
703.553	46.49
703.784	51.98
704.014	57.32
704.244	56.62
704.475	61.05
704.705	67.51
704.936	72.54
705.166	77.8
705.396	83.82
705.627	90.48
705.857	98.13
706.087	104.65
706.317	108.59
706.548	114.03
706.778	119.47
707.008	124.64
707.238	129.65
707.468	131.28
707.698	130.58
707.928	131.78
708.158	132.72
708.389	135.52
708.619	137.4
708.849	139.05
709.079	146.01
709.309	147.33
709.539	148.95
709.768	152.9
709.998	157.04
710.228	156.99
710.458	154.78
710.688	150.7
710.918	148.31
711.148	143.74
711.378	141.29
711.607	134.07
711.837	127.86
712.067	124.9
712.297	118.62
712.526	113.72
712.756	108.39
712.986	98.2
713.215	88.21
713.445	81.94
713.674	76.51
713.904	70.32
714.134	69.45
714.363	64.09
714.593	60.12
714.822	57.09
715.052	54.14
715.281	51.11
715.511	47.03
715.74	41.34
715.969	36.41
716.199	29.56
716.428	25.61
716.657	19.65
716.887	16.45
717.116	9.59
717.345	8.11
717.575	4.65
717.804	2.22
718.033	-2.33
718.262	-5.09
718.492	-6.37
718.721	-4.73
718.95	-4.46
719.179	-8.32
719.408	-7.49
719.637	-10.16
719.866	-13.05
720.095	-12.46
720.324	-11.18
720.553	-15.09
720.782	-16.25
721.011	-16.18
721.24	-18.91
721.469	-18.82
721.698	-19.14
721.927	-18.38
722.156	-19.52
722.385	-19.02
722.613	-15.43
722.842	-14.29
723.071	-11.25
723.3	-8.37
723.529	-9.37
723.757	-7.71
723.986	-11.39
724.215	-12.64
724.443	-12.57
724.672	-11.03
724.901	-9.95
725.129	-7.26
725.358	-2.93
725.586	-6.22
725.815	-8.03
726.043	-9.11
726.272	-9.08
726.5	-9.17
726.729	-8.57
726.957	-11.2
727.186	-12.01
727.414	-11.5
727.642	-9.72
727.871	-7.82
728.099	-7.51
728.327	-7.84
728.556	-6.93
728.784	-4.93
729.012	-7.67
729.241	-4.96
729.469	-4.42
729.697	-7.39
729.925	-6.35
730.153	-7.49
730.381	-8.88
730.61	-8.87
730.838	-12.84
731.066	-12.19
731.294	-11.01
731.522	-13.95
731.75	-15.92
731.978	-17.16
732.206	-18.28
732.434	-20.86
732.662	-17.56
732.89	-19.68
733.118	-21.96
733.346	-21.83
733.573	-21.72
733.801	-20.67
734.029	-13.87
734.257	-12.55
734.485	-8.76
734.712	-6.61
734.94	-9.6
735.168	-8.28
735.396	-6.87
735.623	-7.99
735.851	-7.38
736.078	-4.42
736.306	-3.85
736.534	-7
736.761	-6.6
736.989	-8.57
737.216	-10
737.444	-10.84
737.671	-9.32
737.899	-2.69
738.126	-3.15
738.354	-2.69
738.581	-1.47
738.809	-2.21
739.036	-3.28
739.263	-3.51
739.491	-5.36
739.718	-5.96
739.945	-0.02
740.173	3.25
740.4	3.71
740.627	1.64
740.854	1.59
741.081	-1.51
741.309	-3.7
741.536	-8.33
741.763	-9.56
741.99	-6.9
742.217	-5.41
742.444	-6.36
742.671	-5.39
742.898	-6.42
743.125	-8.75
743.352	-12.53
743.579	-11.55
743.806	-13.15
744.033	-10.74
744.26	-9.61
744.487	-10.52
744.714	-11
744.941	-12.01
745.167	-8.58
745.394	-10.59
745.621	-10.14
745.848	-9.45
746.075	-6.5
746.301	-2.07
746.528	2.85
746.755	1.55
746.981	1.4
747.208	2.39
747.435	4.62
747.661	5.21
747.888	5.88
748.114	4.55
748.341	7.99
748.567	9.65
748.794	7.47
749.02	5.55
749.247	2.43
749.473	2.07
749.7	1.79
749.926	1.44
750.152	6.62
750.379	7.36
750.605	8.76
750.831	9.53
751.058	8.65
751.284	7.69
751.51	10.61
751.737	11.56
751.963	9.34
752.189	6.95
752.415	6.67
752.641	5.38
752.867	5.23
753.094	3.2
753.32	1.06
753.546	-1.88
753.772	-0.56
753.998	-3.19
754.224	-4.13
754.45	-4.39
754.676	-4.69
754.902	-6.6
755.128	-6.17
755.354	-6.54
755.579	-5.07
755.805	-2.31
756.031	-3.66
756.257	-4.65
756.483	-6.35
756.709	-7.88
756.934	-7.71
757.16	-12.05
757.386	-10.51
757.612	-12.5
757.837	-14.7
758.063	-12.29
758.289	-10.24
758.514	-12.62
758.74	-14.92
758.965	-17.37
759.191	-15.84
759.416	-14.03
759.642	-11.98
759.868	-12.16
760.093	-10
760.318	-12.14
760.544	-12.29
760.769	-12.11
760.995	-13.13
761.22	-13.53
761.445	-13.65
761.671	-11.41
761.896	-7.84
762.121	-6.87
762.347	-9.44
762.572	-11.82
762.797	-12.21
763.022	-11.75
763.248	-7.25
763.473	-6.08
763.698	-6.16
763.923	-5.62
764.148	-5.12
764.373	-5.57
764.598	-3.79
764.823	-1.49
765.048	-4.76
765.273	-8.43
765.498	-8.67
765.723	-9.38
765.948	-7.4
766.173	-8.91
766.398	-7.34
766.623	-10.2
766.848	-9.32
767.073	-11.38
767.298	-11.37
767.522	-11.53
767.747	-10.92
767.972	-10.92
768.197	-10.35
768.421	-11.39
768.646	-14.72
768.871	-17.98
769.095	-18.24
769.32	-14.99
769.545	-15.54
769.769	-14.27
769.994	-11.99
770.218	-15.38
770.443	-13.05
770.667	-12.5
770.892	-12.51
771.116	-13.8
771.341	-12.1
771.565	-12.33
771.79	-10.64
772.014	-10.48
772.238	-10.67
772.463	-7.79
772.687	-6.29
772.911	-7.52
773.136	-9.72
773.36	-9.09
773.584	-7.34
773.808	-10.87
774.033	-9.8
774.257	-8.36
774.481	-9
774.705	-10.7
774.929	-10.46
775.153	-11.35
775.377	-9.72
775.602	-8.49
775.826	-6.97
776.05	-3.96
776.274	-4.81
776.498	-4.11
776.722	-5.83
776.945	-5.27
777.169	-5.36
777.393	-8.23
777.617	-8.07
777.841	-7.14
778.065	-4.96
778.289	-7.85
778.512	-8.5
778.736	-9.15
778.96	-10.03
779.184	-6.89
779.407	-9.49
779.631	-9.61
779.855	-9.93
780.078	-8.91
780.302	-12.42
780.526	-15.13
780.749	-12.74
780.973	-11.52
781.196	-11.77
781.42	-13.53
781.643	-12.63
781.867	-11.79
782.09	-12.92
782.314	-14
782.537	-14.46
782.76	-15.39
782.984	-16.41
783.207	-17.83
783.431	-17.64
783.654	-18.28
783.877	-20.42
784.1	-21.6
784.324	-21.12
784.547	-22.83
784.77	-26.48
784.993	-27.03
785.216	-27.52
785.44	-28.26
785.663	-29.17
785.886	-26.04
786.109	-26.97
786.332	-25.74
786.555	-24.5
786.778	-22.62
787.001	-21.24
787.224	-18.58
787.447	-16.24
787.67	-14.9
787.893	-15.64
788.116	-15.78
788.339	-13.58
788.561	-13.66
788.784	-18.04
789.007	-18.98
789.23	-19.48
789.453	-20.43
789.675	-23.13
789.898	-26.1
790.121	-27.89
790.344	-29.52
790.566	-27.99
790.789	-28.26
791.012	-27.33
791.234	-24.39
791.457	-21.26
791.679	-21.77
791.902	-21.44
792.124	-20.46
792.347	-21.35
792.569	-21.55
792.792	-24.13
793.014	-21.69
793.237	-19.94
793.459	-21.29
793.681	-21.32
793.904	-22.2
794.126	-23.67
794.348	-23.93
794.571	-23.69
794.793	-23.87
795.015	-23.85
795.237	-24.69
795.46	-24.53
795.682	-23.51
795.904	-21.4
796.126	-23.32
796.348	-21.5
796.57	-17.11
796.792	-15.34
797.014	-10.5
797.237	-5.34
797.459	-3.77
797.681	-3.83
797.903	-5.9
798.124	-6.11
798.346	6.27
798.568	9.1
798.79	11.28
799.012	13.16
799.234	15.39
799.456	17.25
799.678	19.02
799.899	15.91
800.121	12.21
800.343	13.95
800.565	13.41
800.786	14.48
801.008	16.45
801.23	16.26
801.451	17.02
801.673	14.03
801.895	13.27
802.116	15.78
802.338	17.74
802.559	18.93
802.781	17.22
803.002	20.55
803.224	20.67
803.445	17.51
803.667	17.97
803.888	15.86
804.109	13.29
804.331	12.23
804.552	13.63
804.773	16.3
804.995	14.31
805.216	0.51
805.437	-1.83
805.658	-4.96
805.88	-7.94
806.101	-7.98
806.322	-9.22
806.543	-10.99
806.764	-13.73
806.985	-11.84
807.207	-12.1
807.428	-10.22
807.649	-13.89
807.87	-17.41
808.091	-16.67
808.312	-15.06
808.533	-9.04
808.754	-5.88
808.975	-7.76
809.195	-5.91
809.416	-4.37
809.637	-4.56
809.858	-6.87
810.079	-7.77
810.3	-4.8
810.52	-4.8
810.741	-6.72
810.962	-8.96
811.183	-9.78
811.403	-8.78
811.624	-8.34
811.845	-7.11
812.065	-5.69
812.286	-4.81
812.506	-3.27
812.727	-2.34
812.948	-0.49
813.168	1.79
813.389	0.53
813.609	3.08
813.83	2.67
814.05	1.18
814.27	0.3
814.491	5.18
814.711	5.36
814.931	2.56
815.152	0.38
815.372	-1.22
815.592	-4.3
815.813	-6.37
816.033	-8.86
816.253	-8.59
816.473	-10.09
816.694	-7.86
816.914	-6.93
817.134	-7.91
817.354	-10.61
817.574	-9.65
817.794	-8.14
818.014	-9.03
818.234	-10.58
818.454	-13.13
818.674	-14.99
818.894	-17.9
819.114	-15
819.334	-14.99
819.554	-12.41
819.774	-11
819.994	-13.79
820.214	-13.61
820.433	-12.23
820.653	-11.9
820.873	-9.6
821.093	-8.92
821.312	-12.36
821.532	-8.95
821.752	-6.79
821.972	-9.05
822.191	-8.94
822.411	-8.67
822.63	-7.89
822.85	-7.75
823.07	-9.9
823.289	-8.94
823.509	-10.52
823.728	-8.17
823.948	-9.29
824.167	-9.13
824.387	-10.05
824.606	-9.72
824.825	-10.31
825.045	-9.43
825.264	-8.8
825.483	-7.6
825.703	-5.75
825.922	-8.33
826.141	-9.88
826.361	-11.11
826.58	-15.02
826.799	-16.37
827.018	-15.09
827.237	-15.35
827.456	-14.17
827.676	-14.8
827.895	-13.76
828.114	-12.31
828.333	-13.6
828.552	-14.08
828.771	-12.67
828.99	-15.73
829.209	-15.74
829.428	-13.32
829.647	-13.32
829.866	-13.17
830.084	-12.63
830.303	-13.42
830.522	-14.48
830.741	-14.36
830.96	-14.08
831.179	-12.59
831.397	-13.71
831.616	-13.07
831.835	-13.75
832.053	-13.11
832.272	-12.42
832.491	-11.64
832.709	-12.36
832.928	-11.96
833.147	-12.5
833.365	-11.01
833.584	-8.45
833.802	-6.89
834.021	-6.11
834.239	-5.39
834.458	-7.08
834.676	-11.88
834.894	-11.93
835.113	-11.97
835.331	-11.8
835.55	-12.4
835.768	-11.06
835.986	-10.12
836.204	-12.29
836.423	-11.52
836.641	-12.57
836.859	-13.47
837.077	-11.18
837.296	-11.03
837.514	-12.27
837.732	-12.58
837.95	-14.63
838.168	-12.4
838.386	-12.91
838.604	-11.21
838.822	-11.52
839.04	-14.1
839.258	-12.79
839.476	-10.74
839.694	-10.72
839.912	-12.03
840.13	-13.4
840.348	-9.63
840.566	-11.34
840.783	-10.34
841.001	-12.23
841.219	-10.07
841.437	-7.92
841.655	-8.07
841.872	-8.81
842.09	-9.97
842.308	-7.41
842.525	-7.71
842.743	-6.76
842.961	-8.02
843.178	-11.86
843.396	-7.34
843.613	-6.62
843.831	-6.16
844.048	-6.86
844.266	-5.95
844.483	-5.43
844.701	-6.27
844.918	-6.31
845.136	-6.73
845.353	-8.15
845.57	-6.85
845.788	-3.14
846.005	-7.89
846.222	-9.49
846.439	-7.32
846.657	-7.15
846.874	-5.86
847.091	-9.65
847.308	-9.27
847.526	-11.35
847.743	-11.53
847.96	-14.1
848.177	-14.18
848.394	-14.47
848.611	-15.15
848.828	-15.12
849.045	-17.33
849.262	-17.44
849.479	-18.36
849.696	-17.98
849.913	-18.56
850.13	-23.59
850.347	-19.67
850.564	-21.42
850.78	-23.92
850.997	-25.33
851.214	-25.42
851.431	-24.08
851.647	-26.91
851.864	-26.96
852.081	-25.23
852.298	-29.58
852.514	-30.74
852.731	-27.95
852.948	-26.26
853.164	-26.58
853.381	-25.19
853.597	-26.52
853.814	-28.06
854.03	-30.47
854.247	-28.56
854.463	-28.2
854.68	-27.95
854.896	-27.37
855.113	-27.61
855.329	-26.27
855.545	-24.3
855.762	-25.03
855.978	-26.83
856.194	-28.21
856.411	-24.98
856.627	-23.05
856.843	-21.8
857.059	-20.36
857.275	-20.81
857.492	-17.87
857.708	-14.39
857.924	-14.59
858.14	-11.64
858.356	-12.4
858.572	-11.63
858.788	-12.54
859.004	-10.22
859.22	-13
859.436	-12.83
859.652	-13.67
859.868	-15.26
860.084	-17.16
860.3	-16.68
860.516	-16.53
860.731	-16.34
860.947	-19.08
861.163	-18.64
861.379	-18.09
861.595	-16.26
861.81	-13.99
862.026	-13.36
862.242	-12.46
862.457	-13.1
862.673	-12.03
862.889	-12.14
863.104	-12.73
863.32	-11.81
863.535	-10.89
863.751	-16.81
863.966	-15.05
864.182	-14.95
864.397	-17.06
864.613	-17.48
864.828	-19.94
865.044	-18.41
865.259	-15.76
865.474	-17.11
865.69	-14.7
865.905	-13.09
866.12	-15.16
866.336	-15.34
866.551	-13.17
866.766	-13.23
866.981	-14.13
867.196	-13.61
867.412	-12.44
867.627	-12.57
867.842	-13.01
868.057	-12.67
868.272	-13.69
868.487	-15.16
868.702	-18.16
868.917	-19.98
869.132	-17.96
869.347	-17.52
869.562	-17.76
869.777	-18.6
869.992	-19.9
870.207	-19.27
870.422	-18.93
870.636	-20.02
870.851	-22.41
871.066	-24.33
871.281	-24.96
871.495	-26.32
871.71	-24.19
871.925	-27.95
872.14	-29.66
872.354	-32.6
872.569	-32.61
872.783	-29.87
872.998	-30.55
873.213	-31.47
873.427	-27.97
873.642	-26.13
873.856	-27.16
874.071	-27.13
874.285	-28.23
874.5	-30.62
874.714	-32.79
874.928	-32.72
875.143	-33.81
875.357	-32.91
875.571	-33.55
875.786	-31.93
876	-28.78
876.214	-26.93
876.429	-28.46
876.643	-27.42
876.857	-26.77
877.071	-25.5
877.285	-26.47
877.499	-27.9
877.714	-24.82
877.928	-21.75
878.142	-23.18
878.356	-26.14
878.57	-24.01
878.784	-21.17
878.998	-22.1
879.212	-21.28
879.426	-24.32
879.639	-22.52
879.853	-24.38
880.067	-25.53
880.281	-28.02
880.495	-25.47
880.709	-23.35
880.922	-21.29
881.136	-19.05
881.35	-16.41
881.564	-18.3
881.777	-19.46
881.991	-18.41
882.205	-15.78
882.418	-17.46
882.632	-20.53
882.845	-20.23
883.059	-19.81
883.273	-19.88
883.486	-21.06
883.7	-18.22
883.913	-18.19
884.126	-16.94
884.34	-19.91
884.553	-22.46
884.767	-16.95
884.98	-15.11
885.193	-16.92
885.407	-18.36
885.62	-15.4
885.833	-14.87
886.046	-11.28
886.26	-12.06
886.473	-13.45
886.686	-14.12
886.899	-11.08
887.112	-12.67
887.326	-15.64
887.539	-14.57
887.752	-12.93
887.965	-15.52
888.178	-14.19
888.391	-14.08
888.604	-14.87
888.817	-15.94
889.03	-13.97
889.243	-15.23
889.455	-18.33
889.668	-16.86
889.881	-13.86
890.094	-15.32
890.307	-18.61
890.52	-17.31
890.732	-15.76
890.945	-16.43
891.158	-16.27
891.37	-19.8
891.583	-20.3
891.796	-18.13
892.008	-18.93
892.221	-20.21
892.434	-23.81
892.646	-26.19
892.859	-27.78
893.071	-26.05
893.284	-24.27
893.496	-25.41
893.709	-25.05
893.921	-23.32
894.133	-24.35
894.346	-25.39
894.558	-24.39
894.771	-23.98
894.983	-21.77
895.195	-20.43
895.407	-20.84
895.62	-24.15
895.832	-22.98
896.044	-21.02
896.256	-22.32
896.468	-25.33
896.681	-22.27
896.893	-21.49
897.105	-21.01
897.317	-22.17
897.529	-19.69
897.741	-18.5
897.953	-15.74
898.165	-17.09
898.377	-19.99
898.589	-18.86
898.801	-19.34
899.013	-15.78
899.224	-12.74
899.436	-10.14
899.648	-10.99
899.86	-12.34
900.072	-10.05
900.283	-9.22
900.495	-8.94
900.707	-8.48
900.919	-11.32
901.13	-10.51
901.342	-11.58
901.554	-11.06
901.765	-11.87
901.977	-13.56
902.188	-13.15
902.4	-15.02
902.611	-15.33
902.823	-16.76
903.034	-19.25
903.246	-21.51
903.457	-22.47
903.669	-24.54
903.88	-25.14
904.091	-26.21
904.303	-25.58
904.514	-26.73
904.725	-24.38
904.936	-22.57
905.148	-21.43
905.359	-17.56
905.57	-18.58
905.781	-21.16
905.992	-22.12
906.204	-19.53
906.415	-20.15
906.626	-23.15
906.837	-19.98
907.048	-20.92
907.259	-22.18
907.47	-22.72
907.681	-23.5
907.892	-21.35
908.103	-23.15
908.314	-25.27
908.525	-22.99
908.735	-23.27
908.946	-23.16
909.157	-24.45
909.368	-21.39
909.579	-18.52
909.789	-19.18
910	-19.96
910.211	-17.38
910.421	-17.1
910.632	-14.57
910.843	-18.02
911.053	-14.57
911.264	-13.04
911.475	-14.43
911.685	-14.49
911.896	-15.81
912.106	-15.67
912.317	-16.73
912.527	-14.53
912.737	-15.78
912.948	-14.49
913.158	-13.13
913.369	-16.9
913.579	-14.2
913.789	-13.22
914	-8.08
914.21	-8.16
914.42	-9.63
914.63	-9.81
914.841	-8.19
915.051	-6.33
915.261	-5.31
915.471	-1.65
915.681	-0.16
915.891	-0.4
916.101	-2.57
916.311	-3.17
916.521	-1.95
916.731	-1.14
916.941	1.37
917.151	-0.84
917.361	3.29
917.571	-2.59
917.781	-3.5
917.991	-5.3
918.201	-5.62
918.411	-8.2
918.621	-7.98
918.83	-6.48
919.04	-9.73
919.25	-8.55
919.46	-8.01
919.669	-11.19
919.879	-12.14
920.089	-14.45
920.298	-15.89
920.508	-16.8
920.717	-17.02
920.927	-18.25
921.136	-16.54
921.346	-17.66
921.555	-21.02
921.765	-19.79
921.974	-22.8
922.184	-27.17
922.393	-27.81
922.603	-27.83
922.812	-24.59
923.021	-24.9
923.23	-26.93
923.44	-30.22
923.649	-29.4
923.858	-31.21
924.067	-29.8
924.277	-32.38
924.486	-29.31
924.695	-30.53
924.904	-29.03
925.113	-29.61
925.322	-29.12
925.531	-28.06
925.74	-29.42
925.949	-30.14
926.158	-27
926.367	-25.87
926.576	-24.59
926.785	-24.58
926.994	-26.41
927.203	-25.62
927.412	-25.29
927.621	-27.4
927.83	-24.32
928.038	-25.36
928.247	-27.54
928.456	-26.37
928.665	-23.69
928.873	-22.01
929.082	-19.97
929.291	-18.57
929.499	-17.5
929.708	-18.69
929.916	-17.44
930.125	-19.77
930.333	-20.34
930.542	-18
930.75	-14.06
930.959	-13.45
931.167	-12.85
931.376	-12.5
931.584	-10.01
931.793	-9.84
932.001	-10.3
932.209	-12.68
932.418	-15.86
932.626	-18.95
932.834	-21.74
933.042	-24.77
933.251	-24.82
933.459	-23.99
933.667	-23.82
933.875	-24.78
934.083	-22.53
934.291	-22.56
934.499	-21.08
934.707	-20.6
934.915	-21.87
935.123	-20.63
935.331	-22.82
935.539	-25.46
935.747	-29.26
935.955	-30.38
936.163	-29.61
936.371	-30.27
936.579	-27.65
936.787	-27.66
936.995	-28.14
937.202	-32.13
937.41	-33.16
937.618	-33.56
937.826	-33.2
938.033	-38.47
938.241	-40.65
938.449	-37.44
938.656	-33.63
938.864	-31.75
939.071	-30.5
939.279	-27.14
939.486	-24.87
939.694	-25.04
939.901	-27.6
940.109	-27.18
940.316	-25.96
940.524	-27.35
940.731	-28.58
940.939	-27.18
941.146	-28.38
941.353	-28.39
941.561	-28.57
941.768	-28.32
941.975	-26.58
942.182	-27.38
942.39	-27.12
942.597	-24.06
942.804	-23.56
943.011	-24.58
943.218	-23.86
943.425	-25.39
943.632	-23.6
943.839	-23.96
944.046	-25.49
944.253	-26.39
944.46	-25.45
944.667	-21.31
944.874	-23.01
945.081	-22.1
945.288	-20.94
945.495	-18.7
945.702	-18.87
945.909	-20.86
946.115	-19.26
946.322	-19.71
946.529	-20.02
946.736	-21.23
946.942	-19.18
947.149	-19.98
947.356	-22.64
947.562	-23.51
947.769	-22.58
947.976	-23.52
948.182	-22.78
948.389	-23.4
948.595	-21.02
948.802	-19.97
949.008	-22.74
949.215	-21.51
949.421	-21.94
949.628	-23.73
949.834	-23.09
950.04	-24.87
950.247	-21.23
950.453	-19.46
950.659	-21.34
950.865	-19.22
951.072	-24.49
951.278	-22.37
951.484	-24.49
951.69	-27.9
951.896	-29.58
952.103	-30.05
952.309	-28.66
952.515	-29.2
952.721	-27.86
952.927	-27.33
953.133	-27.92
953.339	-29.36
953.545	-29.88
953.751	-28.35
953.957	-26.22
954.163	-28.49
954.369	-27.23
954.574	-29.03
954.78	-30.1
954.986	-30.62
955.192	-29.59
955.398	-29.78
955.603	-32.85
955.809	-31.09
956.015	-29.78
956.22	-29.72
956.426	-27.81
956.632	-30.18
956.837	-29.35
957.043	-28.51
957.248	-28.12
957.454	-26.53
957.66	-29.1
957.865	-29.06
958.07	-27.14
958.276	-27.62
958.481	-28.95
958.687	-29.37
958.892	-29.35
959.097	-28.74
959.303	-28.05
959.508	-27.11
959.713	-27.47
959.919	-26.94
960.124	-27.59
960.329	-26.54
960.534	-24.09
960.739	-24.16
960.945	-21.46
961.15	-20.21
961.355	-22.15
961.56	-25.99
961.765	-27.73
961.97	-25.82
962.175	-23.52
962.38	-26.75
962.585	-25.04
962.79	-27.92
962.995	-29.49
963.2	-31.52
963.404	-31.23
963.609	-34.42
963.814	-35.71
964.019	-38.46
964.224	-40.27
964.428	-39.32
964.633	-38.66
964.838	-37.24
965.042	-37.24
965.247	-38.79
965.452	-38.15
965.656	-36.57
965.861	-36.46
966.066	-38.1
966.27	-35.55
966.475	-31.24
966.679	-35.29
966.884	-33.2
967.088	-35.01
967.292	-37.16
967.497	-35.81
967.701	-36.57
967.906	-34.59
968.11	-30.74
968.314	-28.25
968.518	-30.3
968.723	-26.34
968.927	-25.93
969.131	-23.21
969.335	-21.51
969.539	-20.17
969.744	-19.28
969.948	-15.59
970.152	-13.35
970.356	-11.55
970.56	-11.9
970.764	-12.59
970.968	-9.6
971.172	-9.65
971.376	-9.36
971.58	-8.03
971.784	-7.26
971.988	-11.09
972.192	-7.59
972.395	-7.76
972.599	-11.12
972.803	-13.78
973.007	-10.5
973.21	-11.43
973.414	-11.04
973.618	-10.91
973.822	-11.41
974.025	-9.44
974.229	-10.27
974.432	-13.69
974.636	-15.66
974.84	-14.75
975.043	-15.26
975.247	-16.75
975.45	-18.47
975.654	-16.9
975.857	-15.54
976.06	-16.67
976.264	-19.03
976.467	-16.7
976.671	-16.07
976.874	-14.47
977.077	-16
977.28	-18.22
977.484	-19.88
977.687	-21.07
977.89	-19.97
978.093	-21.26
978.297	-18.82
978.5	-21.37
978.703	-19.31
978.906	-16.8
979.109	-16.69
979.312	-16.35
979.515	-17.54
979.718	-16.89
979.921	-16.98
980.124	-19.82
980.327	-20.59
980.53	-20.59
980.733	-18.73
980.936	-17.2
981.138	-19.33
981.341	-18.44
981.544	-19.56
981.747	-20.67
981.949	-22.82
982.152	-23.43
982.355	-23.22
982.558	-20.22
982.76	-24.21
982.963	-25.15
983.165	-24.65
983.368	-23.12
983.571	-23.98
983.773	-20.69
983.976	-19.21
984.178	-18.52
984.381	-18.59
984.583	-22.6
984.785	-23.78
984.988	-22.2
985.19	-21.07
985.392	-23.37
985.595	-26.33
985.797	-25.73
985.999	-22.99
986.202	-20.21
986.404	-19.78
986.606	-16.92
986.808	-16.86
987.01	-15.87
987.212	-17.02
987.415	-17.83
987.617	-17.89
987.819	-17.81
988.021	-15.87
988.223	-16.53
988.425	-17.22
988.627	-17.1
988.829	-20.36
989.031	-18.74
989.232	-19.12
989.434	-18.01
989.636	-17.67
989.838	-17.52
990.04	-17.81
990.242	-19.43
990.443	-21.43
990.645	-19.28
990.847	-15.81
991.048	-13.31
991.25	-14.83
991.452	-17.4
991.653	-17.4
991.855	-17.75
992.057	-18.36
992.258	-18.41
992.46	-19.48
992.661	-17.39
992.863	-18.75
993.064	-17.59
993.265	-19.09
993.467	-20.99
993.668	-18.67
993.87	-18.47
994.071	-18.77
994.272	-18.91
994.473	-16.62
994.675	-16.93
994.876	-15.49
995.077	-15.45
995.278	-14.11
995.48	-13.05
995.681	-14.66
995.882	-13.56
996.083	-14.22
996.284	-17.62
996.485	-16.38
996.686	-18.42
996.887	-20.25
997.088	-23
997.289	-26.33
997.49	-25.84
997.691	-24.59
997.892	-23.3
998.092	-18.24
998.293	-18.24
998.494	-19.34
998.695	-20.37
998.896	-19.42
999.096	-20.43
999.297	-20.81
999.498	-21.76
999.698	-22.34
999.899	-24.45
1000.1	-26.79
1000.3	-26.59
1000.501	-26.69
1000.701	-27.77
1000.902	-26.71
1001.102	-28.2
1001.303	-25.91
1001.503	-28.47
1001.704	-28.63
1001.904	-29.84
1002.105	-31.01
1002.305	-30.29
1002.505	-29.66
1002.706	-29.62
1002.906	-28.09
1003.106	-27.62
1003.306	-28
1003.507	-26.18
1003.707	-28.06
1003.907	-25.73
1004.107	-25.31
1004.307	-27.1
1004.507	-25.5
1004.707	-27.01
1004.907	-27.94
1005.107	-28.12
1005.308	-27.29
1005.507	-29.42
1005.707	-27.03
1005.907	-27.25
1006.107	-24.7
1006.307	-22.99
1006.507	-22.83
1006.707	-21.84
1006.907	-22.3
1007.106	-23.15
1007.306	-23.52
1007.506	-24.2
1007.706	-23.87
1007.905	-25.89
1008.105	-23.94
1008.305	-23.81
1008.504	-22.77
1008.704	-18.9
1008.903	-19
1009.103	-17.32
1009.303	-20.92
1009.502	-19.55
1009.702	-20.73
1009.901	-20.37
1010.1	-24.81
1010.3	-22.55
1010.499	-24.8
1010.699	-27.88
1010.898	-27.89
1011.097	-27.65
1011.296	-28.45
1011.496	-28.39
1011.695	-27.2
1011.894	-29.34
1012.093	-25.79
1012.293	-26.82
1012.492	-27.25
1012.691	-27.33
1012.89	-27.66
1013.089	-29.63
1013.288	-29.03
1013.487	-26.93
1013.686	-26.25
1013.885	-28.33
1014.084	-26.54
1014.283	-27
1014.482	-27.9
1014.681	-28.92
1014.88	-32.89
1015.078	-30.96
1015.277	-33.3
1015.476	-32.89
1015.675	-33.73
1015.873	-33.71
1016.072	-34.34
1016.271	-30.12
1016.47	-34.27
1016.668	-33.21
1016.867	-33.76
1017.065	-35.77
1017.264	-35.84
1017.463	-35.48
1017.661	-36.27
1017.86	-36.43
1018.058	-34.51
1018.256	-36.67
1018.455	-37.01
1018.653	-35.56
1018.852	-34.95
1019.05	-36.74
1019.248	-37.32
1019.447	-37.44
1019.645	-38.74
1019.843	-41.31
1020.041	-38.4
1020.24	-37.87
1020.438	-34.07
1020.636	-34.78
1020.834	-35.45
1021.032	-32.98
1021.23	-34.23
1021.428	-31.9
1021.626	-27.43
1021.824	-26.58
1022.022	-26.07
1022.22	-23.82
1022.418	-23.48
1022.616	-24.17
1022.814	-23.85
1023.012	-22.99
1023.21	-19.95
1023.408	-20.63
1023.606	-20.96
1023.803	-15.47
1024.001	-14.14
1024.199	-19.05
1024.397	-18.01
1024.594	-18.04
1024.792	-20.24
1024.99	-20.04
1025.187	-20.08
1025.385	-16.37
1025.582	-17.47
1025.78	-17.8
1025.977	-15.93
1026.175	-16.58
1026.372	-17.27
1026.57	-21.2
1026.767	-18.05
1026.965	-18.5
1027.162	-18.28
1027.359	-19.91
1027.557	-19.37
1027.754	-21.16
1027.951	-22.05
1028.148	-20.81
1028.346	-22.24
1028.543	-24.79
1028.74	-24.73
1028.937	-27.12
1029.134	-26.66
1029.331	-27.99
1029.528	-27.68
1029.725	-28.37
1029.923	-32.43
1030.12	-29.18
1030.317	-26.27
1030.513	-25.87
1030.71	-24.42
1030.907	-21.83
1031.104	-23.03
1031.301	-23.83
1031.498	-23.3
1031.695	-22.88
1031.892	-22.13
1032.088	-22.03
1032.285	-23.35
1032.482	-23.31
1032.678	-24.41
1032.875	-27.37
1033.072	-26.39
1033.268	-25.5
1033.465	-24.76
1033.662	-27.69
1033.858	-28.81
1034.055	-28.15
1034.251	-24.5
1034.448	-25.73
1034.644	-26.09
1034.84	-22.3
1035.037	-19.55
1035.233	-19.87
1035.43	-19.01
1035.626	-19.81
1035.822	-19.02
1036.019	-20.05
1036.215	-24.65
1036.411	-24.29
1036.607	-24.52
1036.803	-27.57
1037	-29.04
1037.196	-29.28
1037.392	-30.06
1037.588	-33.08
1037.784	-31.73
1037.98	-32.52
1038.176	-33.86
1038.372	-33.8
1038.568	-32.55
1038.764	-31.19
1038.96	-27.14
1039.156	-28.14
1039.352	-30.22
1039.547	-27.96
1039.743	-27.83
1039.939	-25.78
1040.135	-26.32
1040.331	-29.9
1040.526	-28.12
1040.722	-27.85
1040.918	-30.41
1041.113	-32.78
1041.309	-32.17
1041.505	-34.49
1041.7	-32.33
1041.896	-32.97
1042.091	-33.22
1042.287	-32.81
1042.482	-32.63
1042.678	-33.5
1042.873	-32.25
1043.069	-32.9
1043.264	-32.47
1043.459	-29.72
1043.655	-27.93
1043.85	-29.22
1044.045	-28.65
1044.24	-27.58
1044.436	-25.49
1044.631	-27.54
1044.826	-28.21
1045.021	-33.38
1045.216	-32.43
