Data from FLMT021711__24__18-15-59-687.txt Node

Date: Tue Nov 05 18:15:59 CET 2024
User: Etudiants TP
Spectrometer: FLMT02171
Trigger mode: 0
Integration Time (sec): 1.000000E-1
Scans to average: 5
Electric dark correction enabled: true
Nonlinearity correction enabled: false
Boxcar width: 15
XAxis mode: Wavelengths
Number of Pixels in Spectrum: 3648
>>>>>Begin Spectral Data<<<<<
194.658	-71.38
194.923	-68.06
195.188	-61.92
195.453	-60.88
195.717	-54.83
195.982	-54
196.247	-51.68
196.512	-54.34
196.777	-51.6
197.042	-48.1
197.307	-46.54
197.572	-41.58
197.837	-41.2
198.101	-37.65
198.366	-34.64
198.631	-32.63
198.896	-25.38
199.161	-18.62
199.425	-10.04
199.69	0.51
199.955	0.08
200.22	-3.16
200.484	-3.93
200.749	-4.55
201.014	-2
201.278	-3.15
201.543	-1.09
201.807	-1.31
202.072	0.12
202.337	0.21
202.601	-1.12
202.866	-2.16
203.13	-0.5
203.395	-2.78
203.659	-1.95
203.924	-4.24
204.189	-3.9
204.453	-3.25
204.717	-0.68
204.982	-0.67
205.246	-1.25
205.511	-0.96
205.775	-2.24
206.04	3.27
206.304	3.97
206.568	5.09
206.833	5.19
207.097	5.84
207.361	9.47
207.626	12.99
207.89	14.66
208.154	14.93
208.419	16.63
208.683	17.62
208.947	20.66
209.211	18.71
209.476	18.92
209.74	18.65
210.004	18.17
210.268	18.78
210.532	21.41
210.796	23.09
211.061	24.94
211.325	24.87
211.589	24.85
211.853	24.96
212.117	25.9
212.381	26.67
212.645	26.19
212.909	26.61
213.173	23.8
213.437	24.64
213.701	24.7
213.965	25.21
214.229	20.51
214.493	18.58
214.757	17.82
215.021	17.1
215.285	20.3
215.549	21.19
215.813	18.72
216.077	17.8
216.34	20.85
216.604	18.53
216.868	18.66
217.132	18.57
217.396	18.53
217.659	18.48
217.923	15.21
218.187	15.48
218.451	14.55
218.714	11.49
218.978	11.49
219.242	12.35
219.505	12.78
219.769	13.7
220.033	13.92
220.296	15.91
220.56	16.43
220.824	14.76
221.087	15.19
221.351	16.46
221.614	15.51
221.878	17.36
222.142	15.85
222.405	14.55
222.669	17.19
222.932	13.14
223.196	12.18
223.459	9.9
223.722	11.02
223.986	8.77
224.249	7.13
224.513	6.07
224.776	6.39
225.04	5.53
225.303	4.9
225.566	5.25
225.83	7.93
226.093	10.78
226.356	9.14
226.62	6.56
226.883	8.1
227.146	7.38
227.409	8.41
227.673	5.79
227.936	5.28
228.199	5.84
228.462	2.78
228.725	2.75
228.989	3.55
229.252	4.85
229.515	10.7
229.778	9.47
230.041	8.05
230.304	6.49
230.567	8.47
230.83	5.54
231.093	8.02
231.356	7.38
231.619	13.38
231.882	11.69
232.145	14.2
232.408	12.99
232.671	12.78
232.934	13.11
233.197	11.16
233.46	10.17
233.723	10.66
233.986	8.87
234.249	6.8
234.512	9.15
234.775	13.43
235.037	12.87
235.3	13.69
235.563	11.77
235.826	12.56
236.089	14.13
236.351	13.18
236.614	16.87
236.877	16.5
237.14	18.22
237.402	17.29
237.665	10.03
237.928	9.59
238.19	7.42
238.453	10.48
238.716	9.42
238.978	9.47
239.241	8.73
239.503	11.77
239.766	7
240.029	4.67
240.291	7.6
240.554	7.65
240.816	6.52
241.079	6.95
241.341	8.3
241.604	7.32
241.866	5.27
242.129	6.22
242.391	7.76
242.653	6.83
242.916	7.33
243.178	7.01
243.441	8.37
243.703	8.72
243.965	7.34
244.228	7.49
244.49	6.24
244.752	5.11
245.015	7.18
245.277	9.37
245.539	8.68
245.801	9.98
246.064	10.87
246.326	10.14
246.588	9.23
246.85	11.82
247.112	12.84
247.374	14.71
247.637	16.55
247.899	15.69
248.161	17.06
248.423	12.93
248.685	13.02
248.947	13.14
249.209	14.11
249.471	13.58
249.733	14.62
249.995	13.5
250.257	12.35
250.519	10.54
250.781	13.53
251.043	10.85
251.305	13.55
251.567	14.84
251.829	15.48
252.091	16.02
252.353	13.27
252.615	15.13
252.876	14.35
253.138	11.1
253.4	7.25
253.662	8.29
253.924	11.26
254.185	11.73
254.447	13.07
254.709	12.69
254.971	13.86
255.232	14.93
255.494	12.33
255.756	9.88
256.017	9.79
256.279	11.12
256.541	9.93
256.802	10.88
257.064	12.07
257.326	11.19
257.587	13.46
257.849	14.7
258.11	17.79
258.372	19.26
258.633	21.35
258.895	19.02
259.156	17.37
259.418	15.05
259.679	10.62
259.941	8.22
260.202	10.62
260.464	12.67
260.725	11.57
260.987	9.53
261.248	10.69
261.509	10.67
261.771	8.94
262.032	9.34
262.293	9.05
262.555	8.62
262.816	7.23
263.077	4.95
263.338	2.97
263.6	4.49
263.861	3.19
264.122	2.45
264.383	4.51
264.645	6.9
264.906	5.59
265.167	5.72
265.428	4.36
265.689	4.67
265.95	2.4
266.211	2.49
266.473	2.27
266.734	-1.29
266.995	-3.64
267.256	-2.46
267.517	0.03
267.778	3.89
268.039	5.77
268.3	3.52
268.561	0.04
268.822	4.26
269.083	2.83
269.344	1.07
269.604	0.53
269.865	1.93
270.126	-2.32
270.387	-0.89
270.648	0.23
270.909	-0.09
271.17	-1.27
271.43	-4.98
271.691	-7.5
271.952	-7.49
272.213	-4.13
272.473	-7.98
272.734	-6.91
272.995	-5.99
273.256	-5.09
273.516	-2.28
273.777	-5.21
274.038	-3.5
274.298	-5.22
274.559	-6.61
274.82	-1.2
275.08	1.42
275.341	2.82
275.601	1.47
275.862	-1.48
276.122	-1.01
276.383	-0.75
276.643	1.83
276.904	-0.43
277.164	3.22
277.425	3.71
277.685	8.38
277.946	7.94
278.206	9.92
278.467	10.86
278.727	12.07
278.987	11.81
279.248	11.42
279.508	14.28
279.768	16.4
280.029	18
280.289	14.31
280.549	13.64
280.81	13.44
281.07	13.58
281.33	14.47
281.59	12.42
281.851	15.06
282.111	14.7
282.371	13.28
282.631	14.03
282.891	11.58
283.151	10.69
283.412	8.28
283.672	8.35
283.932	8.33
284.192	7.49
284.452	7.01
284.712	4.34
284.972	1.02
285.232	-2.69
285.492	-1.12
285.752	-3.7
286.012	2.62
286.272	4.69
286.532	2.87
286.792	2.69
287.052	4.66
287.312	4.2
287.571	2.4
287.831	3.22
288.091	-0.08
288.351	0.59
288.611	5.05
288.871	5.18
289.13	4.65
289.39	1.55
289.65	3.12
289.91	0.55
290.17	3.59
290.429	6.03
290.689	4.65
290.949	2.68
291.208	3.66
291.468	8.1
291.728	9.88
291.987	11.85
292.247	11.61
292.506	14.06
292.766	17.06
293.026	18.58
293.285	20.92
293.545	23.01
293.804	22.82
294.064	19.52
294.323	15.82
294.583	15.21
294.842	16.13
295.102	16.81
295.361	17.95
295.621	19.47
295.88	19.45
296.139	19.78
296.399	19.79
296.658	14.29
296.917	13.49
297.177	11.34
297.436	12.84
297.695	9.68
297.955	11.64
298.214	8.81
298.473	11.22
298.732	13.36
298.992	16.28
299.251	15.47
299.51	10.63
299.769	11.08
300.028	10.69
300.287	11.34
300.547	10.43
300.806	8.04
301.065	9.25
301.324	10.66
301.583	7.22
301.842	3.71
302.101	0.35
302.36	1.46
302.619	2.82
302.878	1.99
303.137	-0.89
303.396	0.94
303.655	2.62
303.914	-0.89
304.173	-0.71
304.432	-0.53
304.691	2.54
304.95	-0.52
305.208	4.19
305.467	4.13
305.726	4.9
305.985	6.1
306.244	8.03
306.503	7.64
306.761	6.19
307.02	1.71
307.279	1.56
307.537	2.41
307.796	-2.29
308.055	-4.64
308.314	-3.73
308.572	-5.97
308.831	-4.74
309.09	-4.09
309.348	-3.52
309.607	-3.95
309.865	-0.24
310.124	0.02
310.382	2.36
310.641	2.28
310.9	0.93
311.158	2.45
311.417	0.43
311.675	0.38
311.933	2.26
312.192	4.04
312.45	3.29
312.709	3.1
312.967	4.98
313.226	4.08
313.484	2.74
313.742	1.68
314.001	-0.66
314.259	-2.41
314.517	-2.2
314.776	0.2
315.034	5.18
315.292	3.16
315.55	1.3
315.809	0.7
316.067	1.37
316.325	-0.54
316.583	0.71
316.841	0.8
317.1	0.15
317.358	-3
317.616	-2.63
317.874	-4.16
318.132	-5.93
318.39	-5.81
318.648	-7.02
318.906	-8.2
319.164	-9.34
319.422	-9.71
319.68	-12.29
319.938	-12.85
320.196	-11.95
320.454	-9.72
320.712	-9.82
320.97	-10.55
321.228	-12.61
321.486	-10.38
321.744	-8.36
322.002	-5.16
322.26	-7.06
322.517	-7.43
322.775	-10.52
323.033	-12.64
323.291	-9.21
323.549	-7.81
323.806	-4.23
324.064	-3.58
324.322	-0.83
324.58	-1.88
324.837	0.51
325.095	-2.12
325.353	-0.48
325.61	-0.02
325.868	-0.99
326.126	2.99
326.383	0.69
326.641	-0.49
326.898	1.85
327.156	1.99
327.413	2.9
327.671	4.54
327.928	7.22
328.186	6.19
328.443	4.13
328.701	7.35
328.958	8.46
329.216	9.36
329.473	7.92
329.731	7.89
329.988	5.93
330.245	9.22
330.503	10.5
330.76	11.44
331.017	14.04
331.275	11.9
331.532	13.07
331.789	10.08
332.047	9.77
332.304	5.69
332.561	8.07
332.818	6.27
333.076	7.19
333.333	8.67
333.59	9.85
333.847	12.81
334.104	10.71
334.361	10.01
334.618	10.23
334.876	9.04
335.133	8.11
335.39	6.86
335.647	8.8
335.904	4.8
336.161	2.26
336.418	3.55
336.675	-1.26
336.932	-0.06
337.189	-2.07
337.446	-1.89
337.703	-3.23
337.96	-6.3
338.216	-6.1
338.473	-9.11
338.73	-8.49
338.987	-9.53
339.244	-6.63
339.501	-8.29
339.757	-6.52
340.014	-5.49
340.271	-4.45
340.528	-5.33
340.785	-1.89
341.041	-0.03
341.298	-2.87
341.555	-4.12
341.811	-5.4
342.068	-7.77
342.325	-6.65
342.581	-2.99
342.838	-2.17
343.094	-0.99
343.351	-1.23
343.608	-4.67
343.864	-2.07
344.121	0.03
344.377	-0.91
344.634	-0.32
344.89	-1.97
345.147	-0.16
345.403	-0.67
345.66	-0.88
345.916	1.19
346.172	-1.13
346.429	-2.39
346.685	-4.58
346.942	-4.39
347.198	-7.56
347.454	-6.73
347.711	-7.02
347.967	-9.29
348.223	-7.31
348.48	-7.33
348.736	-4.66
348.992	-6.59
349.248	-3.6
349.504	-3.11
349.761	-3.34
350.017	-2.15
350.273	-1.79
350.529	-3.24
350.785	-3.9
351.041	-4.5
351.297	-2.66
351.554	-3.19
351.81	-4.55
352.066	-6.22
352.322	-5.85
352.578	-5.69
352.834	-6.54
353.09	-6.73
353.346	-7.12
353.602	-8.35
353.858	-8.19
354.114	-8.61
354.369	-5.7
354.625	-3.63
354.881	-6.03
355.137	-3.35
355.393	-3.12
355.649	-2.16
355.905	-2.54
356.16	-2.81
356.416	-2.47
356.672	-9.58
356.928	-8.69
357.183	-10.52
357.439	-10.85
357.695	-13.08
357.951	-8.53
358.206	-10.75
358.462	-11.85
358.718	-13.68
358.973	-12.41
359.229	-12.19
359.484	-10.84
359.74	-8.41
359.996	-7.12
360.251	-4.53
360.507	-4.99
360.762	-3.66
361.018	-0.34
361.273	-1.71
361.529	1.1
361.784	2.23
362.04	4.48
362.295	3.53
362.55	3.99
362.806	6.55
363.061	6.44
363.316	7.66
363.572	6.26
363.827	8.64
364.082	5.02
364.338	4.46
364.593	5.45
364.848	6.62
365.104	5.79
365.359	8.97
365.614	10.37
365.869	8.86
366.124	10.94
366.38	9.4
366.635	12.37
366.89	13.18
367.145	12.93
367.4	16.74
367.655	17.22
367.91	17.49
368.165	15.06
368.42	11.72
368.675	12.04
368.93	11.17
369.185	9.11
369.44	8.42
369.695	9.12
369.95	7.01
370.205	5.19
370.46	4.14
370.715	3.97
370.97	3.89
371.225	2.43
371.48	4.57
371.734	4.15
371.989	6.39
372.244	7.09
372.499	8.84
372.754	7.79
373.008	5.7
373.263	0.23
373.518	2.31
373.773	-0.48
374.027	-1.94
374.282	1.14
374.537	1.21
374.791	3.1
375.046	2.23
375.301	-1.77
375.555	-4.16
375.81	-2.01
376.064	-1.53
376.319	4.09
376.573	3.1
376.828	-0.52
377.082	3.64
377.337	2.1
377.591	-0.76
377.846	0.43
378.1	4.31
378.355	4.81
378.609	3.46
378.863	-0.34
379.118	1.9
379.372	1.5
379.627	-0.18
379.881	-2.54
380.135	-2.44
380.389	-2.85
380.644	-2.28
380.898	-1.11
381.152	1.57
381.407	2.62
381.661	5.27
381.915	6.87
382.169	6.71
382.423	5.52
382.677	1.5
382.932	1.57
383.186	3.96
383.44	4.85
383.694	6.18
383.948	4.67
384.202	1.62
384.456	2.94
384.71	4.23
384.964	3.44
385.218	5.78
385.472	6.6
385.726	4.68
385.98	3.43
386.234	3.37
386.488	0.35
386.742	1.76
386.996	-1.06
387.249	-0.89
387.503	2.59
387.757	4.86
388.011	5.21
388.265	5.64
388.518	6.82
388.772	8.61
389.026	10.33
389.28	7.72
389.533	6.06
389.787	7.61
390.041	5.06
390.295	5.14
390.548	5
390.802	7.62
391.055	7.04
391.309	6.62
391.563	3.97
391.816	5.36
392.07	4.5
392.323	5.54
392.577	6.48
392.83	7.43
393.084	11.34
393.337	13.68
393.591	16.46
393.844	16.24
394.098	20.14
394.351	25.11
394.604	28.57
394.858	30.1
395.111	30.3
395.364	27.26
395.618	27.76
395.871	25.78
396.124	24.01
396.378	22.72
396.631	22.32
396.884	17.9
397.137	17.36
397.391	18.38
397.644	14.84
397.897	15.88
398.15	16.74
398.403	20.59
398.657	19.22
398.91	17.77
399.163	19.18
399.416	19.19
399.669	18.53
399.922	18.27
400.175	16.76
400.428	18.84
400.681	21.84
400.934	21.62
401.187	25.56
401.44	28.9
401.693	30.82
401.946	28.77
402.199	25.92
402.452	25.13
402.704	21.64
402.957	21.01
403.21	23.2
403.463	23.66
403.716	23.92
403.969	25.85
404.221	25.25
404.474	27.22
404.727	32.22
404.98	35.16
405.232	35.12
405.485	38.91
405.738	40.71
405.99	41.77
406.243	42.11
406.496	43.84
406.748	43.07
407.001	41.04
407.253	41.18
407.506	40.22
407.759	41.41
408.011	39.06
408.264	36.99
408.516	34.36
408.769	28.12
409.021	24.09
409.274	19.3
409.526	19.65
409.778	15.97
410.031	17.46
410.283	16.22
410.536	22.59
410.788	19.58
411.04	18.76
411.293	18.59
411.545	19.36
411.797	17.63
412.049	17.24
412.302	17.67
412.554	17.17
412.806	15.09
413.058	13.02
413.311	12.9
413.563	10.99
413.815	8.81
414.067	5.93
414.319	5.57
414.571	7.64
414.823	6.95
415.075	5.51
415.328	6.63
415.58	10.23
415.832	11.18
416.084	11.47
416.336	9.65
416.588	13.5
416.84	11.75
417.091	15.08
417.343	9.92
417.595	12.2
417.847	12.56
418.099	13.56
418.351	12.91
418.603	17.51
418.855	17.89
419.106	17.92
419.358	19.45
419.61	19.52
419.862	21.25
420.114	19.47
420.365	19.31
420.617	19.39
420.869	18.49
421.12	16.51
421.372	17.51
421.624	18.86
421.875	19.37
422.127	15.34
422.379	14.19
422.63	16.24
422.882	14.74
423.133	15.21
423.385	13.69
423.636	14.85
423.888	17.38
424.139	18.32
424.391	15.08
424.642	12.99
424.894	10.86
425.145	10.89
425.396	8.36
425.648	10.67
425.899	8.7
426.151	8.29
426.402	6.61
426.653	7.36
426.905	7
427.156	5.05
427.407	5.63
427.658	4.15
427.91	1.09
428.161	0.7
428.412	2.24
428.663	3.43
428.914	4.41
429.166	5.37
429.417	4.11
429.668	1.45
429.919	-1.12
430.17	-0.56
430.421	-0.95
430.672	4.24
430.923	4.48
431.174	4.71
431.425	7.66
431.676	11.87
431.927	17.42
432.178	29.29
432.429	40.33
432.68	49.23
432.931	60.87
433.182	70.5
433.433	71.4
433.683	75.59
433.934	75.62
434.185	75.08
434.436	73.26
434.687	74.27
434.937	75.75
435.188	74.75
435.439	75.07
435.69	77.69
435.94	76.47
436.191	77.06
436.442	76.96
436.692	75.75
436.943	73.64
437.194	72.43
437.444	76.36
437.695	81.95
437.945	81.7
438.196	81.19
438.447	78.52
438.697	78.01
438.948	76.27
439.198	69.7
439.449	59.22
439.699	53.04
439.949	42.98
440.2	33.39
440.45	24.46
440.701	14.2
440.951	6.63
441.201	3.79
441.452	-0.71
441.702	-2.86
441.952	-1.27
442.203	-0.78
442.453	-3.34
442.703	-3.88
442.953	-3.72
443.204	-3.61
443.454	-5.25
443.704	-5.82
443.954	-9.03
444.204	-8.29
444.455	-5.79
444.705	-5.81
444.955	-5.09
445.205	-7.08
445.455	-10.12
445.705	-10.16
445.955	-11.42
446.205	-11.94
446.455	-11.65
446.705	-11.45
446.955	-9.45
447.205	-7.97
447.455	-7.06
447.705	-9.27
447.955	-11.53
448.205	-10.73
448.454	-9.52
448.704	-8.02
448.954	-10.03
449.204	-9.73
449.454	-8.69
449.704	-11.38
449.953	-12.57
450.203	-9.89
450.453	-12.38
450.703	-10.85
450.952	-10.91
451.202	-10.17
451.452	-10.75
451.701	-7.08
451.951	-3.9
452.201	-5.25
452.45	-4.95
452.7	-4.31
452.949	-4.24
453.199	-4.79
453.448	-2.35
453.698	-0.53
453.947	-2.16
454.197	-3.56
454.446	-4.58
454.696	-1.18
454.945	-1.72
455.195	-4.15
455.444	-3.87
455.693	0.69
455.943	-1.17
456.192	-1.87
456.442	-2.8
456.691	-3.85
456.94	-4.01
457.189	-6.1
457.439	-4.09
457.688	-1.1
457.937	-2.44
458.186	-1.39
458.436	-1.92
458.685	-1.73
458.934	-1.9
459.183	-1.64
459.432	-0.83
459.681	-1.92
459.93	-4.06
460.179	-3.89
460.429	-5.34
460.678	-2.43
460.927	0.69
461.176	-1.81
461.425	-2.32
461.674	1.15
461.923	2.39
462.172	2.08
462.42	-0.16
462.669	3.61
462.918	3.71
463.167	4.66
463.416	2.17
463.665	3.7
463.914	5.32
464.162	4.59
464.411	6.31
464.66	7.33
464.909	6.96
465.158	6.93
465.406	5.62
465.655	8.1
465.904	9.02
466.152	10.46
466.401	10.7
466.65	13.93
466.898	11.82
467.147	8.28
467.395	8.3
467.644	11.13
467.893	10.26
468.141	10.94
468.39	8.79
468.638	6.71
468.887	6.04
469.135	5.75
469.384	4.88
469.632	5.33
469.88	5.34
470.129	7.39
470.377	3.76
470.626	7.35
470.874	9.37
471.122	10.61
471.371	8.11
471.619	5.37
471.867	8.09
472.115	9.33
472.364	8.02
472.612	10.42
472.86	10.02
473.108	11.38
473.356	10.14
473.605	11.79
473.853	8.8
474.101	8.93
474.349	6.95
474.597	10.61
474.845	9.79
475.093	7.4
475.341	4.9
475.589	4.99
475.837	6.22
476.085	7.48
476.333	6.13
476.581	8.02
476.829	7.96
477.077	10.3
477.325	9.37
477.573	11.62
477.821	10.01
478.069	11.98
478.317	11.86
478.564	13.76
478.812	11.25
479.06	10.35
479.308	10.89
479.555	11.09
479.803	8.88
480.051	11.51
480.299	12.39
480.546	12.8
480.794	10.59
481.042	12.61
481.289	12.57
481.537	16.14
481.784	15.61
482.032	19.05
482.28	19.64
482.527	20.74
482.775	23.92
483.022	28.17
483.27	31.95
483.517	37.43
483.765	38.17
484.012	40.69
484.259	40.78
484.507	45.32
484.754	47.04
485.002	48.14
485.249	48.84
485.496	53.73
485.744	54.44
485.991	54.64
486.238	53.76
486.486	59.46
486.733	61.56
486.98	65.26
487.227	64.24
487.474	68.75
487.722	72.21
487.969	70.1
488.216	70.45
488.463	70.91
488.71	69.36
488.957	68.53
489.204	67.96
489.451	69.46
489.699	68.21
489.946	65.88
490.193	64.41
490.44	63.79
490.687	62.61
490.934	59.65
491.18	53.4
491.427	54.23
491.674	55.24
491.921	53.24
492.168	49.66
492.415	46.08
492.662	46.09
492.909	47.34
493.155	43.82
493.402	41.51
493.649	38.69
493.896	38.92
494.142	32.96
494.389	33.86
494.636	31.17
494.883	28.74
495.129	25.04
495.376	20.06
495.623	21.49
495.869	22.06
496.116	23.94
496.362	23.22
496.609	25.04
496.855	28.9
497.102	27.66
497.348	25.9
497.595	26.12
497.841	29.87
498.088	26.6
498.334	24.75
498.581	22.14
498.827	22.18
499.074	21.01
499.32	22.24
499.566	25.94
499.813	27.06
500.059	24.55
500.305	24.14
500.552	21.03
500.798	20.29
501.044	23.19
501.29	22.24
501.537	19.8
501.783	23.06
502.029	24.23
502.275	20.01
502.521	18.42
502.767	19.27
503.013	22.13
503.26	18.4
503.506	14.7
503.752	13.42
503.998	11.88
504.244	11.61
504.49	7.17
504.736	6.15
504.982	3.62
505.228	5.68
505.474	5.31
505.72	7.53
505.966	5.95
506.211	10.09
506.457	9.67
506.703	6.02
506.949	3.39
507.195	0.44
507.441	-4.38
507.686	-1.43
507.932	-1.91
508.178	-0.57
508.424	-2.51
508.669	-3.29
508.915	-2.5
509.161	-0.4
509.406	-0.92
509.652	-2.38
509.898	2.27
510.143	3.52
510.389	1.89
510.634	-2.32
510.88	1.27
511.125	3.77
511.371	4.69
511.616	6.15
511.862	2.99
512.107	-1.1
512.353	2.02
512.598	4.17
512.844	1.49
513.089	-0.26
513.335	-0.06
513.58	-0.77
513.825	-1.57
514.071	-2.91
514.316	-1.52
514.561	-1.34
514.806	-1.48
515.052	1.02
515.297	-0.6
515.542	0.19
515.787	1.63
516.033	3.86
516.278	2.42
516.523	0.58
516.768	-1.89
517.013	-4.04
517.258	-4.07
517.503	-5.33
517.748	-5.12
517.993	-4.82
518.238	-4.05
518.483	-5.94
518.728	-6.55
518.973	-8.66
519.218	-8.97
519.463	-7.66
519.708	-6.62
519.953	-9.39
520.198	-8.84
520.443	-5.9
520.688	-3.42
520.933	-4.83
521.177	-3.5
521.422	-5.85
521.667	-2.24
521.912	-2.6
522.157	-5.76
522.401	-4.07
522.646	-4.44
522.891	-2.68
523.135	-2.76
523.38	-3.04
523.625	-5.52
523.869	-3.49
524.114	-1.29
524.358	-2.35
524.603	-2.09
524.848	-4.81
525.092	-5.74
525.337	-5.68
525.581	-4.33
525.826	-2.12
526.07	-1.64
526.315	-0.13
526.559	-0.65
526.803	-1.56
527.048	0.45
527.292	0.93
527.537	1.91
527.781	0.76
528.025	-3.14
528.269	-2.57
528.514	-2.34
528.758	-3.76
529.002	-4.05
529.247	-0.89
529.491	-0.84
529.735	4.31
529.979	5.88
530.223	8.3
530.467	5.16
530.712	4
530.956	1.75
531.2	4.29
531.444	2.65
531.688	4.54
531.932	4.65
532.176	5.77
532.42	8.76
532.664	11.2
532.908	11.2
533.152	11.06
533.396	10.91
533.64	10.69
533.884	8.34
534.128	9.07
534.371	11.18
534.615	14.58
534.859	15.81
535.103	17.13
535.347	19.41
535.59	23.52
535.834	22.54
536.078	28.09
536.322	34.73
536.565	42.93
536.809	44.54
537.053	52.94
537.296	57.35
537.54	64.55
537.784	73.5
538.027	86.89
538.271	98.67
538.514	112.36
538.758	125.67
539.001	135.57
539.245	147.7
539.488	161.08
539.732	175.91
539.975	187.22
540.219	199.67
540.462	211.36
540.706	222.78
540.949	232.2
541.192	243.47
541.436	260.21
541.679	277.02
541.922	292.19
542.166	304.77
542.409	325.17
542.652	345.79
542.895	367.57
543.139	388.08
543.382	409.47
543.625	422.62
543.868	431.78
544.111	439.99
544.354	447.82
544.598	450.27
544.841	455.05
545.084	454.73
545.327	451.08
545.57	448.64
545.813	445.47
546.056	437.1
546.299	428.75
546.542	424.32
546.785	420.07
547.028	412.32
547.271	403.37
547.514	396.05
547.756	385.9
547.999	377.81
548.242	371.21
548.485	361.19
548.728	352.88
548.971	339.67
549.213	329.96
549.456	316.09
549.699	298.61
549.942	278.21
550.184	257.56
550.427	235.29
550.67	215.23
550.912	192.59
551.155	176.64
551.398	163.34
551.64	150.24
551.883	137.9
552.125	127.81
552.368	117.75
552.61	106.39
552.853	102.3
553.095	92.75
553.338	85.78
553.58	81.76
553.823	75.12
554.065	72.03
554.308	62.99
554.55	56.13
554.792	47.98
555.035	41.36
555.277	36.13
555.519	34.19
555.762	28.23
556.004	27.21
556.246	21.89
556.488	20.51
556.731	14.97
556.973	13.73
557.215	12.32
557.457	12.97
557.699	13.27
557.941	9.34
558.183	7.77
558.426	8.01
558.668	4.05
558.91	4.94
559.152	3.17
559.394	1.8
559.636	2.9
559.878	3
560.12	1.97
560.362	1.36
560.604	0.28
560.845	-1.63
561.087	-3.51
561.329	-1.91
561.571	-5.14
561.813	-5.96
562.055	-5.51
562.297	-4.14
562.538	-2.61
562.78	0.56
563.022	-2.94
563.264	-1.92
563.505	-2.15
563.747	-1.13
563.989	-3.32
564.23	-3.84
564.472	-6.24
564.714	-4.32
564.955	-4.78
565.197	-7.67
565.438	-4.37
565.68	-2.12
565.921	-3.47
566.163	-1.39
566.404	-4.31
566.646	-1.37
566.887	0.73
567.129	1.06
567.37	-0.96
567.612	1.32
567.853	-0.49
568.094	1.88
568.336	2.41
568.577	3.35
568.818	3.34
569.06	1.59
569.301	0.2
569.542	1.45
569.783	2.85
570.025	2.92
570.266	3.23
570.507	4.95
570.748	4.97
570.989	5.29
571.23	7.67
571.472	6.63
571.713	4.45
571.954	6.73
572.195	4.42
572.436	6.7
572.677	9.47
572.918	11.69
573.159	10.54
573.4	11.92
573.641	14.02
573.882	17.94
574.123	17.47
574.364	14.85
574.604	17.55
574.845	19.26
575.086	22.99
575.327	26.89
575.568	29.43
575.809	32.41
576.049	34.08
576.29	35.97
576.531	45.34
576.771	52.38
577.012	57.91
577.253	62.45
577.494	65.17
577.734	67.41
577.975	71.06
578.215	72.94
578.456	74.71
578.697	77.57
578.937	81.79
579.178	84.94
579.418	86.5
579.659	90.14
579.899	89.74
580.14	90.1
580.38	91.01
580.62	92.63
580.861	96.85
581.101	97.87
581.342	99.29
581.582	95.59
581.822	98.63
582.063	98.29
582.303	100.38
582.543	100.11
582.783	101.18
583.024	102.47
583.264	106.35
583.504	105.7
583.744	109.39
583.984	108.3
584.224	110.46
584.465	109.8
584.705	111.78
584.945	113.83
585.185	115.29
585.425	116.41
585.665	117.8
585.905	116.97
586.145	117.33
586.385	115.64
586.625	117.19
586.865	116.04
587.105	114.73
587.345	113.84
587.585	113.73
587.824	111.78
588.064	111.93
588.304	109.27
588.544	108.49
588.784	105.81
589.024	110.25
589.263	111.32
589.503	110.68
589.743	114.66
589.982	116.37
590.222	117.86
590.462	117.06
590.701	115.13
590.941	119.12
591.181	116.91
591.42	113.89
591.66	113.26
591.899	114.47
592.139	110.48
592.378	108.37
592.618	103.88
592.857	102.07
593.097	100.62
593.336	99.79
593.576	96.79
593.815	98.09
594.055	97.42
594.294	97.77
594.533	97.61
594.773	97.65
595.012	98.97
595.251	100.23
595.491	103.86
595.73	105.75
595.969	107.03
596.208	109.36
596.447	114.84
596.687	114.83
596.926	114.83
597.165	109.22
597.404	109.61
597.643	105.89
597.882	102.97
598.121	100.3
598.36	98.09
598.599	97.71
598.838	96.18
599.077	90.31
599.316	88.19
599.555	86.16
599.794	85.45
600.033	88.32
600.272	88.22
600.511	85.03
600.75	86.33
600.989	88.19
601.228	87.05
601.466	86.23
601.705	85.02
601.944	85.65
602.183	88.88
602.422	87.16
602.66	84.45
602.899	79.6
603.138	77.76
603.376	75.78
603.615	74.11
603.854	67.95
604.092	66.58
604.331	67.47
604.569	68.52
604.808	67.24
605.047	69.1
605.285	70.85
605.524	72.76
605.762	74.4
606	79.37
606.239	86.88
606.477	94.68
606.716	102.01
606.954	116.97
607.193	136.87
607.431	161.34
607.669	197.13
607.908	239.69
608.146	287.7
608.384	334.5
608.622	380.96
608.861	425.31
609.099	466.15
609.337	501.2
609.575	531.14
609.813	562.42
610.052	590.85
610.29	612.16
610.528	633.95
610.766	651.74
611.004	669.49
611.242	685.06
611.48	698.81
611.718	708.72
611.956	720.72
612.194	730
612.432	736.18
612.67	741.4
612.908	748.01
613.146	748.73
613.384	748.86
613.621	746.41
613.859	744.65
614.097	736.8
614.335	726.42
614.573	708.32
614.811	685.68
615.048	650.94
615.286	611.63
615.524	567.21
615.761	518.32
615.999	475.17
616.237	431.94
616.474	395.12
616.712	361.28
616.95	327.89
617.187	298.46
617.425	273.42
617.662	253.03
617.9	231.15
618.137	211.54
618.375	193.63
618.612	176.7
618.85	165.31
619.087	155.49
619.325	144.34
619.562	132.31
619.799	124.43
620.037	117.36
620.274	111.36
620.511	109.06
620.749	101.74
620.986	97.96
621.223	93.64
621.461	92.63
621.698	91.78
621.935	91.18
622.172	88.22
622.409	90.76
622.647	91.17
622.884	90.05
623.121	93.77
623.358	93.34
623.595	94.46
623.832	95.45
624.069	95.25
624.306	98.77
624.543	101.93
624.78	102.01
625.017	102.58
625.254	104.71
625.491	107.86
625.728	110.25
625.965	112.24
626.202	112.05
626.438	111.63
626.675	111.45
626.912	115.73
627.149	118.73
627.386	121.19
627.622	122.3
627.859	125.48
628.096	129.13
628.333	132.05
628.569	135.08
628.806	140.06
629.043	141.15
629.279	144.12
629.516	145.8
629.752	141.32
629.989	140.16
630.225	135.24
630.462	131.91
630.699	129.07
630.935	126.1
631.171	119.61
631.408	117.45
631.644	112.52
631.881	106.75
632.117	102.86
632.354	101.86
632.59	97.96
632.826	95.1
633.063	92.45
633.299	91.23
633.535	86.77
633.771	83.05
634.008	83.15
634.244	79.05
634.48	72.71
634.716	69.97
634.953	64.97
635.189	60.5
635.425	56.55
635.661	52.59
635.897	46.58
636.133	40.67
636.369	36.05
636.605	28.1
636.841	24.47
637.077	23.76
637.313	22.64
637.549	22.66
637.785	22.81
638.021	22.39
638.257	20.92
638.493	24.1
638.729	20.96
638.965	24.94
639.2	27.39
639.436	26.55
639.672	23.45
639.908	20.89
640.144	25.32
640.379	27.31
640.615	23.61
640.851	24.83
641.086	27.39
641.322	24.39
641.558	24
641.793	24.91
642.029	22.32
642.264	20.51
642.5	19.96
642.736	18.38
642.971	20.15
643.207	18.75
643.442	16.53
643.678	16.42
643.913	16.53
644.148	15.48
644.384	17.72
644.619	17.03
644.855	19.78
645.09	19.44
645.325	20.18
645.561	21.68
645.796	19.17
646.031	24.35
646.266	22.13
646.502	19.78
646.737	23.45
646.972	25.55
647.207	28.71
647.442	25.88
647.678	23.86
647.913	29.56
648.148	32.44
648.383	31.27
648.618	32.64
648.853	34.56
649.088	39.23
649.323	44.26
649.558	45.71
649.793	46.81
650.028	48.39
650.263	45.47
650.498	48.58
650.733	49.39
650.968	47.46
651.202	50.86
651.437	49.64
651.672	45.38
651.907	46.27
652.142	46.4
652.376	46.94
652.611	48.07
652.846	48.54
653.081	48.88
653.315	47.64
653.55	47.59
653.785	46.35
654.019	46.65
654.254	45.69
654.488	45.05
654.723	41.73
654.958	39.52
655.192	36.73
655.427	31.48
655.661	32.65
655.896	33.27
656.13	33.41
656.364	27.2
656.599	23.27
656.833	26.96
657.068	27.18
657.302	26.69
657.536	25.99
657.771	26.45
658.005	27.56
658.239	29.91
658.474	26.37
658.708	28.07
658.942	28.47
659.176	26.33
659.41	22.71
659.645	22.11
659.879	20.64
660.113	18.17
660.347	18.41
660.581	15.15
660.815	14.75
661.049	15.97
661.283	12.42
661.517	11.1
661.751	11.19
661.985	10.03
662.219	11.23
662.453	9.11
662.687	11.89
662.921	7.59
663.155	6.83
663.389	1.29
663.622	1.04
663.856	2.65
664.09	-0.49
664.324	-0.19
664.558	-0.13
664.791	-1.94
665.025	-1.97
665.259	-2.11
665.492	-4.26
665.726	-0.57
665.96	-0.24
666.193	-2.04
666.427	-2.33
666.661	-2.26
666.894	-3.51
667.128	-3.71
667.361	-2.8
667.595	-3.41
667.828	-3.25
668.062	-3.68
668.295	-4.3
668.529	-3.83
668.762	-4.28
668.995	-6.39
669.229	-2.94
669.462	-3.42
669.695	-1.45
669.929	-4.2
670.162	-2.67
670.395	-3.49
670.629	-2.67
670.862	0.35
671.095	-2.67
671.328	-2.05
671.561	-5.71
671.795	-5.73
672.028	-4.4
672.261	-3.2
672.494	-3.03
672.727	-3.46
672.96	-2.76
673.193	-4.36
673.426	1.79
673.659	4
673.892	4.03
674.125	2.65
674.358	1.39
674.591	0.98
674.824	0.27
675.057	1.11
675.29	0.37
675.523	1.41
675.755	1.02
675.988	2.35
676.221	5.92
676.454	6.15
676.687	8.36
676.919	6.93
677.152	7.77
677.385	7.68
677.617	7.66
677.85	9.12
678.083	7.56
678.315	11.18
678.548	9.47
678.78	8.79
679.013	7.9
679.246	9.11
679.478	8.87
679.711	7.26
679.943	9.74
680.175	6.15
680.408	10.24
680.64	5.72
680.873	7.05
681.105	8.19
681.338	11.94
681.57	12.64
681.802	14.62
682.034	13.97
682.267	16.61
682.499	17.23
682.731	14.54
682.964	13.62
683.196	11.4
683.428	7.58
683.66	5.41
683.892	7.69
684.124	10.28
684.356	12.95
684.589	13.19
684.821	13.23
685.053	14.99
685.285	15.65
685.517	16.63
685.749	16.95
685.981	19.82
686.213	21.36
686.445	21.56
686.676	19.67
686.908	21.69
687.14	19.4
687.372	19.89
687.604	16.79
687.836	17.91
688.068	17.32
688.299	16.88
688.531	14.16
688.763	17.48
688.995	15.87
689.226	19.73
689.458	16.63
689.69	14.7
689.921	14.31
690.153	15.26
690.384	17.54
690.616	18.62
690.848	19.48
691.079	15.02
691.311	12
691.542	9.7
691.774	8.46
692.005	11.16
692.237	11.97
692.468	10
692.699	8.94
692.931	9.11
693.162	6.63
693.393	5.78
693.625	3.64
693.856	2.84
694.087	1.45
694.319	3.7
694.55	4.16
694.781	3.77
695.012	4.12
695.243	1.58
695.475	1.18
695.706	1.79
695.937	1.61
696.168	0.03
696.399	-2.69
696.63	-2.17
696.861	-1.55
697.092	3.89
697.323	6.13
697.554	5.53
697.785	6.37
698.016	8.03
698.247	6.5
698.478	8.69
698.709	10.79
698.94	13.15
699.171	12.92
699.401	9.19
699.632	12.24
699.863	8.35
700.094	8.69
700.325	11.39
700.555	11.56
700.786	14.15
701.017	15.38
701.247	14.37
701.478	14.02
701.709	14.83
701.939	13.43
702.17	15.9
702.401	19.83
702.631	20.96
702.862	20.46
703.092	16.05
703.323	20.94
703.553	24.23
703.784	25.56
704.014	28.38
704.244	24.43
704.475	25.24
704.705	27.53
704.936	29.38
705.166	29.18
705.396	33.76
705.627	35.47
705.857	36.32
706.087	38.93
706.317	37.78
706.548	38.21
706.778	38.28
707.008	40.84
707.238	42.12
707.468	41.69
707.698	40.92
707.928	40.66
708.158	41.06
708.389	43.21
708.619	43.71
708.849	42.91
709.079	45.23
709.309	43.92
709.539	40.88
709.768	42.59
709.998	47.21
710.228	49.07
710.458	47.43
710.688	44.59
710.918	44.83
711.148	42.63
711.378	42.69
711.607	39.46
711.837	38.98
712.067	37.34
712.297	35.61
712.526	34
712.756	33.69
712.986	29.33
713.215	24.16
713.445	23.68
713.674	24.19
713.904	21.58
714.134	22.81
714.363	21.52
714.593	18.75
714.822	18.14
715.052	16.27
715.281	15.92
715.511	13.68
715.74	11.6
715.969	10.32
716.199	9.29
716.428	7.55
716.657	7.5
716.887	8.03
717.116	2.19
717.345	3.62
717.575	2.61
717.804	1.14
718.033	-1.61
718.262	-2.89
718.492	-3.8
718.721	-3.47
718.95	-4.65
719.179	-7.22
719.408	-6.46
719.637	-10.06
719.866	-13.71
720.095	-11.78
720.324	-11.35
720.553	-15.81
720.782	-17.7
721.011	-17.33
721.24	-19.07
721.469	-19.56
721.698	-19.48
721.927	-20.28
722.156	-21.7
722.385	-23.01
722.613	-20.71
722.842	-19.82
723.071	-16.98
723.3	-16.64
723.529	-16.95
723.757	-17.9
723.986	-21.65
724.215	-21.4
724.443	-20.94
724.672	-18.77
724.901	-17.57
725.129	-15.45
725.358	-10.83
725.586	-11.99
725.815	-11.5
726.043	-13.06
726.272	-15.13
726.5	-16
726.729	-14.86
726.957	-17.11
727.186	-18.33
727.414	-17.59
727.642	-16.44
727.871	-14
728.099	-13.6
728.327	-14.05
728.556	-12.16
728.784	-10.68
729.012	-11.78
729.241	-8.92
729.469	-9.19
729.697	-11.12
729.925	-10.22
730.153	-13.07
730.381	-12.3
730.61	-11.65
730.838	-12.97
731.066	-11.99
731.294	-12.2
731.522	-15.38
731.75	-20.05
731.978	-21.11
732.206	-22.23
732.434	-25.51
732.662	-23.96
732.89	-26.25
733.118	-25.71
733.346	-23.96
733.573	-23.73
733.801	-22.35
734.029	-15.39
734.257	-14.23
734.485	-10.85
734.712	-7.82
734.94	-11
735.168	-8.62
735.396	-8.32
735.623	-10.64
735.851	-10.03
736.078	-8.28
736.306	-7.89
736.534	-8.19
736.761	-8.63
736.989	-11.69
737.216	-11.03
737.444	-12.11
737.671	-11.24
737.899	-5.84
738.126	-6.9
738.354	-5.28
738.581	-3.51
738.809	-2.17
739.036	-3.68
739.263	-2.67
739.491	-4.92
739.718	-4.19
739.945	1.93
740.173	4.41
740.4	5.37
740.627	4.02
740.854	3.4
741.081	2.08
741.309	-0.39
741.536	-5.04
741.763	-6
741.99	-3.95
742.217	-4.26
742.444	-4.53
742.671	-2.84
742.898	-3.64
743.125	-5.26
743.352	-6.6
743.579	-6.71
743.806	-5.76
744.033	-2.8
744.26	-0.53
744.487	-1.74
744.714	-1.56
744.941	-2.08
745.167	1.65
745.394	-0.91
745.621	-1.85
745.848	-1.22
746.075	1.33
746.301	5.07
746.528	9.18
746.755	7.14
746.981	5.68
747.208	6.52
747.435	8.65
747.661	10.31
747.888	11.89
748.114	8.01
748.341	10.67
748.567	13.55
748.794	11.01
749.02	10.17
749.247	8.2
749.473	6.49
749.7	6.09
749.926	5.77
750.152	10.53
750.379	10.13
750.605	9.82
750.831	8.36
751.058	6.75
751.284	3.42
751.51	5.84
751.737	7.4
751.963	4.67
752.189	3.71
752.415	3.99
752.641	2.87
752.867	2.1
753.094	0.63
753.32	-2.32
753.546	-3.33
753.772	-0.86
753.998	-2.59
754.224	-4.71
754.45	-6.31
754.676	-8.19
754.902	-9.96
755.128	-9.89
755.354	-11.09
755.579	-10.92
755.805	-8.25
756.031	-9.79
756.257	-11.44
756.483	-10.43
756.709	-13.28
756.934	-13.85
757.16	-16.44
757.386	-15.59
757.612	-17.04
757.837	-17.57
758.063	-15.23
758.289	-11.07
758.514	-12.16
758.74	-17.19
758.965	-19.36
759.191	-18.09
759.416	-16.87
759.642	-14.75
759.868	-13.77
760.093	-11.87
760.318	-13.27
760.544	-12.4
760.769	-14.46
760.995	-15.5
761.22	-15.54
761.445	-11.95
761.671	-8.65
761.896	-5.48
762.121	-3.71
762.347	-4.29
762.572	-7.73
762.797	-9.43
763.022	-7.66
763.248	-1.98
763.473	-0.46
763.698	1.47
763.923	2.15
764.148	1.23
764.373	-0.37
764.598	2.42
764.823	5.4
765.048	2.77
765.273	-1.34
765.498	-1.81
765.723	-0.05
765.948	1.7
766.173	0.72
766.398	1.66
766.623	-1.85
766.848	-2.83
767.073	-4.52
767.298	-3.87
767.522	-5.14
767.747	-3.28
767.972	-3.72
768.197	-3.07
768.421	-6.53
768.646	-10.3
768.871	-14.46
769.095	-15.11
769.32	-13.24
769.545	-12.62
769.769	-8.81
769.994	-7.39
770.218	-11.1
770.443	-11.04
770.667	-11.43
770.892	-9.24
771.116	-9.74
771.341	-8.1
771.565	-9.41
771.79	-9.86
772.014	-10.58
772.238	-11.04
772.463	-9.43
772.687	-9.41
772.911	-9.46
773.136	-13.67
773.36	-12.24
773.584	-9.48
773.808	-12.11
774.033	-11.46
774.257	-12.89
774.481	-14.01
774.705	-14.99
774.929	-14.08
775.153	-13.27
775.377	-11.36
775.602	-9.93
775.826	-7.48
776.05	-5.77
776.274	-6.96
776.498	-6.13
776.722	-8.93
776.945	-8.94
777.169	-9.81
777.393	-11.53
777.617	-12.94
777.841	-13.97
778.065	-13.33
778.289	-14.16
778.512	-14.83
778.736	-15.02
778.96	-15.18
779.184	-12.92
779.407	-15.4
779.631	-13.97
779.855	-15.75
780.078	-12.83
780.302	-14.48
780.526	-16.06
780.749	-15.11
780.973	-12.32
781.196	-10.57
781.42	-11.32
781.643	-11.54
781.867	-10.7
782.09	-14.71
782.314	-15.83
782.537	-16.28
782.76	-17.35
782.984	-17.27
783.207	-17.15
783.431	-16.96
783.654	-17.45
783.877	-19.55
784.1	-19.03
784.324	-18.82
784.547	-18.24
784.77	-22.73
784.993	-23.44
785.216	-25.39
785.44	-24.67
785.663	-26
785.886	-22.67
786.109	-22.79
786.332	-20.55
786.555	-20.82
786.778	-18.73
787.001	-19.36
787.224	-18.62
787.447	-18.15
787.67	-15.43
787.893	-16.63
788.116	-16.7
788.339	-15.78
788.561	-16.53
788.784	-20.94
789.007	-20.14
789.23	-21.54
789.453	-22.17
789.675	-24.15
789.898	-26.14
790.121	-27.98
790.344	-29.33
790.566	-29.32
790.789	-29.32
791.012	-29.18
791.234	-26.04
791.457	-22.35
791.679	-20.5
791.902	-20.53
792.124	-18.52
792.347	-18.69
792.569	-19.17
792.792	-23.75
793.014	-21.76
793.237	-20.82
793.459	-20.57
793.681	-19.82
793.904	-19.28
794.126	-20.55
794.348	-20.99
794.571	-20.65
794.793	-23.05
795.015	-22.12
795.237	-21.87
795.46	-20.1
795.682	-17.89
795.904	-16.61
796.126	-17.8
796.348	-18.57
796.57	-14.55
796.792	-13.42
797.014	-8.54
797.237	-5.33
797.459	-1.73
797.681	-0.67
797.903	-1.95
798.124	-2.89
798.346	7.01
798.568	9.39
798.79	13.2
799.012	13.79
799.234	15.07
799.456	16.63
799.678	20.91
799.899	17.77
800.121	14.11
800.343	13.06
800.565	13
800.786	13.01
801.008	15.02
801.23	15.08
801.451	16.55
801.673	15.14
801.895	12.61
802.116	13.6
802.338	14.21
802.559	13.63
802.781	13.1
803.002	16.35
803.224	20.14
803.445	17
803.667	18.45
803.888	14.91
804.109	13.99
804.331	11.7
804.552	11.54
804.773	12.99
804.995	11.11
805.216	-1.71
805.437	-4.97
805.658	-6.5
805.88	-7.41
806.101	-7.8
806.322	-7.63
806.543	-10.1
806.764	-11.85
806.985	-9.37
807.207	-7.07
807.428	-6.44
807.649	-9.22
807.87	-11.81
808.091	-11.47
808.312	-11.68
808.533	-5.53
808.754	-2.39
808.975	-4.29
809.195	-2.6
809.416	-1.98
809.637	-3.15
809.858	-5.01
810.079	-8.06
810.3	-5.27
810.52	-6.1
810.741	-7.64
810.962	-8.66
811.183	-8.66
811.403	-7.16
811.624	-8.59
811.845	-7.03
812.065	-5.87
812.286	-3.9
812.506	-5.34
812.727	-6
812.948	-3.94
813.168	-2.78
813.389	-4.71
813.609	-1.88
813.83	-2.99
814.05	-6.36
814.27	-7.28
814.491	-3.37
814.711	-4.03
814.931	-6.2
815.152	-7.41
815.372	-9.52
815.592	-11.27
815.813	-11.95
816.033	-14.04
816.253	-12.53
816.473	-13.82
816.694	-14.13
816.914	-12.84
817.134	-12.44
817.354	-14.42
817.574	-12.27
817.794	-12.58
818.014	-13.97
818.234	-15.22
818.454	-15.92
818.674	-19.61
818.894	-23.34
819.114	-20.43
819.334	-20.49
819.554	-17.87
819.774	-15.71
819.994	-18.4
820.214	-17.81
820.433	-18.23
820.653	-17.95
820.873	-15.33
821.093	-15.73
821.312	-18.13
821.532	-15.06
821.752	-11.64
821.972	-11.91
822.191	-10.98
822.411	-11.29
822.63	-11.16
822.85	-10.75
823.07	-14.19
823.289	-12.74
823.509	-13.16
823.728	-11.28
823.948	-13.78
824.167	-14.45
824.387	-16.69
824.606	-15.97
824.825	-16.88
825.045	-17.15
825.264	-17.09
825.483	-14.02
825.703	-10.68
825.922	-13.01
826.141	-13.5
826.361	-14.18
826.58	-20.3
826.799	-21.05
827.018	-18.83
827.237	-18.33
827.456	-16.84
827.676	-16.8
827.895	-15.51
828.114	-12.77
828.333	-13.56
828.552	-14.46
828.771	-14.59
828.99	-18.3
829.209	-17.64
829.428	-14.6
829.647	-14.08
829.866	-11.79
830.084	-11.45
830.303	-12.13
830.522	-13.05
830.741	-13.3
830.96	-12.57
831.179	-11
831.397	-12.05
831.616	-11.79
831.835	-11.43
832.053	-10.74
832.272	-11.12
832.491	-10.16
832.709	-10.95
832.928	-9.98
833.147	-10.48
833.365	-8.89
833.584	-6.76
833.802	-4.32
834.021	-3.69
834.239	-3.58
834.458	-4.64
834.676	-8.55
834.894	-11.03
835.113	-12.71
835.331	-13.22
835.55	-13.67
835.768	-11.81
835.986	-11.9
836.204	-14.36
836.423	-14.94
836.641	-16.08
836.859	-17.16
837.077	-15.95
837.296	-15.47
837.514	-15.91
837.732	-16.75
837.95	-17.32
838.168	-15.31
838.386	-15.98
838.604	-14.99
838.822	-13.82
839.04	-15.05
839.258	-14.77
839.476	-13.45
839.694	-14.64
839.912	-15.32
840.13	-15.69
840.348	-12.81
840.566	-16
840.783	-15.92
841.001	-17.83
841.219	-16.98
841.437	-15.41
841.655	-13.77
841.872	-12.44
842.09	-12.91
842.308	-12.24
842.525	-11.71
842.743	-9.95
842.961	-11.04
843.178	-12.91
843.396	-9.34
843.613	-7.8
843.831	-6.55
844.048	-7.28
844.266	-6.53
844.483	-5.38
844.701	-6.29
844.918	-6.48
845.136	-6.55
845.353	-8.41
845.57	-8.5
845.788	-4.27
846.005	-6.74
846.222	-7.38
846.439	-4.5
846.657	-4.65
846.874	-2.99
847.091	-5.59
847.308	-4.06
847.526	-5.1
847.743	-4.04
847.96	-5.99
848.177	-5.4
848.394	-6.99
848.611	-7.68
848.828	-8.75
849.045	-8.66
849.262	-9.43
849.479	-10.52
849.696	-10.38
849.913	-12.75
850.13	-17
850.347	-15.22
850.564	-15.22
850.78	-17.74
850.997	-20.46
851.214	-20.96
851.431	-19.96
851.647	-22.14
851.864	-20.29
852.081	-17.1
852.298	-19.28
852.514	-22.97
852.731	-21.71
852.948	-20.69
853.164	-21.32
853.381	-21.24
853.597	-22.37
853.814	-24.21
854.03	-27.98
854.247	-26.25
854.463	-26.53
854.68	-26.62
854.896	-26.35
855.113	-25.72
855.329	-25.36
855.545	-22.01
855.762	-24.15
855.978	-27.25
856.194	-28.5
856.411	-24.87
856.627	-21.29
856.843	-20.89
857.059	-18.65
857.275	-20.73
857.492	-18.79
857.708	-13.99
857.924	-12.84
858.14	-10.1
858.356	-11.58
858.572	-13.02
858.788	-14.77
859.004	-13.78
859.22	-14.85
859.436	-15.04
859.652	-16.23
859.868	-17.39
860.084	-18.12
860.3	-18.18
860.516	-17.49
860.731	-16.81
860.947	-19.13
861.163	-17.96
861.379	-17.37
861.595	-15.57
861.81	-15.54
862.026	-15.49
862.242	-15.57
862.457	-14.49
862.673	-11.93
862.889	-12.1
863.104	-12.9
863.32	-12.84
863.535	-12.34
863.751	-17.02
863.966	-14.55
864.182	-13.2
864.397	-15.42
864.613	-16.72
864.828	-18.93
865.044	-15.37
865.259	-12.11
865.474	-13.1
865.69	-11.03
865.905	-9.89
866.12	-11.61
866.336	-12.04
866.551	-11.12
866.766	-10.38
866.981	-10.96
867.196	-11.15
867.412	-10.57
867.627	-9.8
867.842	-11.5
868.057	-11.52
868.272	-11.94
868.487	-11.39
868.702	-13.69
868.917	-15.15
869.132	-13.19
869.347	-13.27
869.562	-13.93
869.777	-13.92
869.992	-15.51
870.207	-14.85
870.422	-15.61
870.636	-17.16
870.851	-19.59
871.066	-21.41
871.281	-21.02
871.495	-22.02
871.71	-19.46
871.925	-22.32
872.14	-23.42
872.354	-26.82
872.569	-27.45
872.783	-24.7
872.998	-25.12
873.213	-25.75
873.427	-23.43
873.642	-22.46
873.856	-21.32
874.071	-22.2
874.285	-24.11
874.5	-26.13
874.714	-27.17
874.928	-28.17
875.143	-29.14
875.357	-27.42
875.571	-28.74
875.786	-29.38
876	-25.12
876.214	-23.1
876.429	-26.99
876.643	-25.55
876.857	-24.79
877.071	-23
877.285	-23.81
877.499	-25.93
877.714	-22.98
877.928	-20.38
878.142	-22.21
878.356	-25.87
878.57	-25.56
878.784	-23.29
878.998	-23.07
879.212	-19.28
879.426	-22.31
879.639	-20.57
879.853	-21.58
880.067	-21.53
880.281	-22.87
880.495	-22.26
880.709	-17.95
880.922	-15.74
881.136	-12.68
881.35	-10.6
881.564	-11.47
881.777	-12.87
881.991	-12.53
882.205	-9.26
882.418	-10.42
882.632	-14.51
882.845	-14.55
883.059	-12.56
883.273	-13.61
883.486	-15.25
883.7	-12.97
883.913	-13.69
884.126	-11.67
884.34	-15.18
884.553	-18.51
884.767	-14.69
884.98	-14.26
885.193	-14.43
885.407	-15.86
885.62	-14.36
885.833	-16.62
886.046	-14.05
886.26	-15.03
886.473	-16.44
886.686	-18.34
886.899	-17.91
887.112	-20.99
887.326	-25.28
887.539	-25.65
887.752	-24.51
887.965	-27.29
888.178	-26.08
888.391	-25.61
888.604	-25.75
888.817	-27.74
889.03	-25.56
889.243	-26.58
889.455	-30.07
889.668	-29.57
889.881	-25.93
890.094	-26.1
890.307	-29.1
890.52	-26.9
890.732	-25.88
890.945	-24.58
891.158	-24.97
891.37	-27.22
891.583	-28.24
891.796	-26.74
892.008	-27.06
892.221	-27.33
892.434	-29.92
892.646	-31.99
892.859	-33.46
893.071	-30.1
893.284	-27.87
893.496	-27.9
893.709	-25.83
893.921	-23.76
894.133	-23.75
894.346	-25.04
894.558	-23.67
894.771	-23.94
894.983	-22.15
895.195	-21.63
895.407	-20.88
895.62	-23.98
895.832	-22.46
896.044	-19.03
896.256	-20.13
896.468	-22.91
896.681	-21.53
896.893	-19.6
897.105	-19.57
897.317	-20.84
897.529	-19.99
897.741	-18.21
897.953	-15.06
898.165	-16.47
898.377	-17.7
898.589	-16.68
898.801	-16.9
899.013	-14.86
899.224	-11.82
899.436	-8.74
899.648	-10.61
899.86	-13.48
900.072	-10.05
900.283	-8.24
900.495	-7.06
900.707	-7.45
900.919	-9.83
901.13	-9.38
901.342	-11.52
901.554	-12.2
901.765	-11.16
901.977	-15.09
902.188	-14.71
902.4	-16.29
902.611	-18.62
902.823	-20.23
903.034	-21.68
903.246	-23.35
903.457	-24.75
903.669	-26.23
903.88	-25.84
904.091	-26.35
904.303	-26.11
904.514	-28.14
904.725	-25.24
904.936	-24.34
905.148	-23.49
905.359	-21.4
905.57	-21.34
905.781	-22.7
905.992	-23.43
906.204	-22.63
906.415	-21.77
906.626	-24.02
906.837	-22.23
907.048	-23.52
907.259	-23.43
907.47	-24.41
907.681	-25.38
907.892	-21.42
908.103	-22.4
908.314	-26.53
908.525	-21.96
908.735	-21.51
908.946	-21.89
909.157	-22.06
909.368	-18.45
909.579	-16.41
909.789	-17.18
910	-18.84
910.211	-16.7
910.421	-18
910.632	-15.47
910.843	-18.23
911.053	-14.36
911.264	-12.21
911.475	-13.51
911.685	-13.78
911.896	-14.61
912.106	-14.81
912.317	-17.55
912.527	-16.28
912.737	-16.14
912.948	-14.45
913.158	-14.81
913.369	-18.33
913.579	-16.67
913.789	-14.85
914	-10.63
914.21	-9.75
914.42	-10.29
914.63	-10.4
914.841	-8.29
915.051	-7.65
915.261	-7.52
915.471	-4.66
915.681	-3.45
915.891	-4.4
916.101	-6.04
916.311	-5.27
916.521	-4.09
916.731	-3.53
916.941	-0.7
917.151	-3.16
917.361	0.99
917.571	-4.54
917.781	-6.69
917.991	-9.77
918.201	-9.47
918.411	-11.07
918.621	-10.48
918.83	-8.6
919.04	-11.59
919.25	-9.7
919.46	-9.75
919.669	-12.65
919.879	-12.21
920.089	-12.72
920.298	-15.28
920.508	-15.22
920.717	-14.81
920.927	-17.47
921.136	-16.03
921.346	-16.33
921.555	-19.16
921.765	-18.73
921.974	-21.26
922.184	-24.53
922.393	-25.08
922.603	-24.96
922.812	-22.55
923.021	-22.81
923.23	-24.94
923.44	-27.02
923.649	-26.31
923.858	-28.04
924.067	-26.35
924.277	-28.59
924.486	-26.96
924.695	-27.76
924.904	-26.13
925.113	-25.99
925.322	-24.82
925.531	-22.73
925.74	-26.06
925.949	-26.85
926.158	-24.01
926.367	-24.25
926.576	-24.88
926.785	-24.44
926.994	-26.1
927.203	-25.62
927.412	-25.39
927.621	-26.32
927.83	-24.18
928.038	-24.44
928.247	-24.73
928.456	-23.18
928.665	-21.09
928.873	-19.81
929.082	-18.56
929.291	-18.75
929.499	-17.41
929.708	-18
929.916	-17.06
930.125	-18.27
930.333	-18.82
930.542	-16.66
930.75	-13.47
930.959	-10.63
931.167	-11.06
931.376	-11.87
931.584	-11.19
931.793	-9.8
932.001	-11.82
932.209	-12.42
932.418	-14.26
932.626	-15.49
932.834	-19
933.042	-21.83
933.251	-21.94
933.459	-22.77
933.667	-23.01
933.875	-22.99
934.083	-21.87
934.291	-21.88
934.499	-21.2
934.707	-22.08
934.915	-23.95
935.123	-21.35
935.331	-21.63
935.539	-23.27
935.747	-25.75
935.955	-25.57
936.163	-25.85
936.371	-25.14
936.579	-23.37
936.787	-23.78
936.995	-26.31
937.202	-29.5
937.41	-30.35
937.618	-31.12
937.826	-31.33
938.033	-35.01
938.241	-38.56
938.449	-34.85
938.656	-32.16
938.864	-31.99
939.071	-31.9
939.279	-26.94
939.486	-22.77
939.694	-23.76
939.901	-24.58
940.109	-25.11
940.316	-24.73
940.524	-26.49
940.731	-28.14
940.939	-25.38
941.146	-24.28
941.353	-24.37
941.561	-25.71
941.768	-25.42
941.975	-24.38
942.182	-24.64
942.39	-24.95
942.597	-20.74
942.804	-21.42
943.011	-22.47
943.218	-23.03
943.425	-21.43
943.632	-20.41
943.839	-21.18
944.046	-21.88
944.253	-22.06
944.46	-21.77
944.667	-17.81
944.874	-18.88
945.081	-17.72
945.288	-16.83
945.495	-14.94
945.702	-15.71
945.909	-18.76
946.115	-16.59
946.322	-16.81
946.529	-17.33
946.736	-17.05
946.942	-15.06
947.149	-15.47
947.356	-18.58
947.562	-21.2
947.769	-20.74
947.976	-21.79
948.182	-22.35
948.389	-23.33
948.595	-21.03
948.802	-20.15
949.008	-23.46
949.215	-23.27
949.421	-22.86
949.628	-23.21
949.834	-23.63
950.04	-22.9
950.247	-18.34
950.453	-16.5
950.659	-18.05
950.865	-15.72
951.072	-20.69
951.278	-19.12
951.484	-20.93
951.69	-23.85
951.896	-24.1
952.103	-24.94
952.309	-23.82
952.515	-24.88
952.721	-22.47
952.927	-21.7
953.133	-23.15
953.339	-24.07
953.545	-24.24
953.751	-22.53
953.957	-18.67
954.163	-19.7
954.369	-20.05
954.574	-21.78
954.78	-21.31
954.986	-20.9
955.192	-20
955.398	-20.56
955.603	-22.77
955.809	-21.52
956.015	-20.05
956.22	-20.16
956.426	-20.42
956.632	-24.59
956.837	-23.92
957.043	-22.77
957.248	-22.44
957.454	-20.48
957.66	-23.92
957.865	-24.08
958.07	-21.42
958.276	-23.65
958.481	-25.59
958.687	-26.21
958.892	-26.66
959.097	-27.9
959.303	-28.21
959.508	-28.11
959.713	-27.74
959.919	-27.48
960.124	-28.69
960.329	-29.16
960.534	-25.8
960.739	-22.21
960.945	-18.85
961.15	-18.92
961.355	-20.94
961.56	-26.07
961.765	-25.61
961.97	-24.43
962.175	-23.18
962.38	-27.45
962.585	-27.49
962.79	-29.04
962.995	-29.72
963.2	-31.68
963.404	-31.9
963.609	-33.98
963.814	-35.62
964.019	-36.78
964.224	-38.59
964.428	-35.99
964.633	-33.43
964.838	-31.73
965.042	-30.73
965.247	-31.82
965.452	-30.87
965.656	-29.38
965.861	-28.86
966.066	-30.11
966.27	-27.59
966.475	-23.23
966.679	-27.31
966.884	-27.2
967.088	-30.55
967.292	-31.08
967.497	-29.76
967.701	-30.88
967.906	-29.11
968.11	-26.62
968.314	-23.37
968.518	-24.88
968.723	-19.68
968.927	-18.51
969.131	-16.85
969.335	-14.42
969.539	-13.96
969.744	-11.86
969.948	-8.75
970.152	-7.6
970.356	-5.75
970.56	-5.61
970.764	-8.51
970.968	-6.48
971.172	-7.15
971.376	-6.35
971.58	-4.69
971.784	-4.48
971.988	-6.94
972.192	-4.32
972.395	-4.88
972.599	-7.88
972.803	-11.37
973.007	-8.43
973.21	-9
973.414	-10.12
973.618	-11.42
973.822	-12.02
974.025	-10.38
974.229	-9.17
974.432	-12.94
974.636	-15.81
974.84	-15.06
975.043	-15.43
975.247	-16.06
975.45	-17.29
975.654	-17.96
975.857	-16.45
976.06	-17.43
976.264	-19.84
976.467	-17.5
976.671	-18.73
976.874	-16.04
977.077	-16.77
977.28	-18.71
977.484	-19.61
977.687	-21.05
977.89	-19.67
978.093	-19.07
978.297	-16.7
978.5	-20.14
978.703	-18.56
978.906	-16.62
979.109	-15.11
979.312	-15.37
979.515	-16.3
979.718	-15.31
979.921	-14.87
980.124	-16.32
980.327	-16.97
980.53	-17.64
980.733	-16.03
980.936	-12.49
981.138	-13.37
981.341	-13.99
981.544	-14.48
981.747	-15.03
981.949	-15.61
982.152	-15.76
982.355	-16.42
982.558	-13.02
982.76	-15.67
982.963	-15.38
983.165	-16.72
983.368	-15.59
983.571	-16.61
983.773	-13.18
983.976	-13.48
984.178	-12.93
984.381	-14.81
984.583	-18.35
984.785	-17.83
984.988	-15.37
985.19	-14.82
985.392	-17.28
985.595	-19.53
985.797	-20.07
985.999	-17.39
986.202	-15.4
986.404	-16.19
986.606	-13.22
986.808	-14.96
987.01	-12.2
987.212	-15.29
987.415	-18.27
987.617	-18.01
987.819	-17.67
988.021	-17.2
988.223	-19.57
988.425	-20.1
988.627	-20.8
988.829	-25.67
989.031	-24.35
989.232	-25.01
989.434	-22.43
989.636	-22.91
989.838	-22.54
990.04	-20.83
990.242	-20.69
990.443	-23.27
990.645	-21.09
990.847	-18.51
991.048	-17.02
991.25	-19.51
991.452	-20.32
991.653	-20.71
991.855	-20.34
992.057	-19.79
992.258	-19.6
992.46	-21.43
992.661	-20.13
992.863	-20.9
993.064	-18.98
993.265	-21.2
993.467	-22.39
993.668	-19.74
993.87	-18.38
994.071	-19.24
994.272	-18.14
994.473	-15.14
994.675	-15.51
994.876	-14.03
995.077	-13.08
995.278	-11.5
995.48	-10.82
995.681	-13.66
995.882	-12.75
996.083	-13.02
996.284	-17.96
996.485	-18.22
996.686	-18.45
996.887	-19.02
997.088	-22.14
997.289	-24.03
997.49	-23.74
997.691	-24.08
997.892	-24.22
998.092	-19.56
998.293	-19.95
998.494	-21.79
998.695	-21.51
998.896	-19.11
999.096	-19.71
999.297	-19.24
999.498	-20.11
999.698	-22.38
999.899	-24.63
1000.1	-27.02
1000.3	-27.43
1000.501	-28.15
1000.701	-29.07
1000.902	-28.69
1001.102	-28.46
1001.303	-27.1
1001.503	-30.35
1001.704	-29.69
1001.904	-30.8
1002.105	-30.78
1002.305	-30.82
1002.505	-31.34
1002.706	-31.77
1002.906	-32.11
1003.106	-34.07
1003.306	-31.38
1003.507	-29.59
1003.707	-30.57
1003.907	-28.03
1004.107	-25.72
1004.307	-27.61
1004.507	-25.07
1004.707	-25.22
1004.907	-27.25
1005.107	-28.92
1005.308	-29.23
1005.507	-30.26
1005.707	-27.94
1005.907	-26.4
1006.107	-23.53
1006.307	-23.22
1006.507	-24.43
1006.707	-23.68
1006.907	-22.89
1007.106	-22.51
1007.306	-23.64
1007.506	-22
1007.706	-21.09
1007.905	-23.35
1008.105	-22.31
1008.305	-23.5
1008.504	-21.69
1008.704	-16.49
1008.903	-14.91
1009.103	-13.2
1009.303	-14.13
1009.502	-13.91
1009.702	-14.97
1009.901	-14.59
1010.1	-18.19
1010.3	-17.03
1010.499	-19.02
1010.699	-20.96
1010.898	-21.67
1011.097	-20.25
1011.296	-20.05
1011.496	-20.51
1011.695	-20.69
1011.894	-24.53
1012.093	-21.59
1012.293	-22.06
1012.492	-20.9
1012.691	-19.44
1012.89	-20.62
1013.089	-22.88
1013.288	-22.86
1013.487	-21.92
1013.686	-23.55
1013.885	-25.01
1014.084	-22.73
1014.283	-23.25
1014.482	-23.2
1014.681	-25.22
1014.88	-30.02
1015.078	-29.34
1015.277	-32.01
1015.476	-32.41
1015.675	-32.85
1015.873	-31.19
1016.072	-32.79
1016.271	-29.52
1016.47	-33.83
1016.668	-32.2
1016.867	-33.4
1017.065	-34.66
1017.264	-35.99
1017.463	-35.44
1017.661	-35.74
1017.86	-36.03
1018.058	-33.45
1018.256	-34.86
1018.455	-35.27
1018.653	-34.93
1018.852	-34.63
1019.05	-35.36
1019.248	-36.17
1019.447	-37.99
1019.645	-39.05
1019.843	-40.08
1020.041	-38.12
1020.24	-39.02
1020.438	-34.43
1020.636	-35.56
1020.834	-37.81
1021.032	-33.8
1021.23	-34.92
1021.428	-32.5
1021.626	-28.88
1021.824	-28.66
1022.022	-31.38
1022.22	-28.56
1022.418	-28.25
1022.616	-29.27
1022.814	-29.35
1023.012	-30.3
1023.21	-27.6
1023.408	-28.37
1023.606	-29.34
1023.803	-24.42
1024.001	-23.84
1024.199	-26.63
1024.397	-26.68
1024.594	-27.98
1024.792	-31.09
1024.99	-30.76
1025.187	-28.9
1025.385	-25.02
1025.582	-24.26
1025.78	-24.11
1025.977	-23.08
1026.175	-21.97
1026.372	-21.91
1026.57	-25.08
1026.767	-21.24
1026.965	-20.24
1027.162	-21.49
1027.359	-22.61
1027.557	-22.26
1027.754	-25.59
1027.951	-26.68
1028.148	-24.19
1028.346	-27.53
1028.543	-30.73
1028.74	-29.45
1028.937	-32.33
1029.134	-30.99
1029.331	-31.14
1029.528	-30.41
1029.725	-31.48
1029.923	-34.87
1030.12	-31.41
1030.317	-30.55
1030.513	-29.09
1030.71	-25.57
1030.907	-23.04
1031.104	-23.49
1031.301	-24.89
1031.498	-25.2
1031.695	-25.28
1031.892	-24.99
1032.088	-24.8
1032.285	-28.43
1032.482	-30.41
1032.678	-33.47
1032.875	-36.74
1033.072	-35.12
1033.268	-35.11
1033.465	-34.24
1033.662	-35.17
1033.858	-34.49
1034.055	-35.03
1034.251	-33.03
1034.448	-32.21
1034.644	-31.74
1034.84	-28.74
1035.037	-26.33
1035.233	-27.01
1035.43	-27.54
1035.626	-27.33
1035.822	-26.36
1036.019	-27.8
1036.215	-32.54
1036.411	-32.65
1036.607	-32.88
1036.803	-37.2
1037	-37.64
1037.196	-38.96
1037.392	-39.61
1037.588	-41.93
1037.784	-40.01
1037.98	-41.69
1038.176	-42.91
1038.372	-43.17
1038.568	-39.92
1038.764	-37.13
1038.96	-34.4
1039.156	-34.35
1039.352	-35.74
1039.547	-33.73
1039.743	-33.77
1039.939	-31.44
1040.135	-31.16
1040.331	-34.08
1040.526	-31
1040.722	-31.72
1040.918	-33.97
1041.113	-37.06
1041.309	-36.3
1041.505	-38.7
1041.7	-38.29
1041.896	-38.02
1042.091	-37.6
1042.287	-35.69
1042.482	-34.47
1042.678	-35.76
1042.873	-34.21
1043.069	-34.71
1043.264	-33.62
1043.459	-32.29
1043.655	-30.81
1043.85	-32.81
1044.045	-30.27
1044.24	-29.38
1044.436	-25.91
1044.631	-27.71
1044.826	-28.69
1045.021	-31.98
1045.216	-33.61
