Data from FLMT021711__17__18-15-28-687.txt Node

Date: Tue Nov 05 18:15:28 CET 2024
User: Etudiants TP
Spectrometer: FLMT02171
Trigger mode: 0
Integration Time (sec): 1.000000E-1
Scans to average: 5
Electric dark correction enabled: true
Nonlinearity correction enabled: false
Boxcar width: 15
XAxis mode: Wavelengths
Number of Pixels in Spectrum: 3648
>>>>>Begin Spectral Data<<<<<
194.658	-64.16
194.923	-61.26
195.188	-53.65
195.453	-52.4
195.717	-47.26
195.982	-45.94
196.247	-43.74
196.512	-47.36
196.777	-46.8
197.042	-44.53
197.307	-44.58
197.572	-39.92
197.837	-40.34
198.101	-38.34
198.366	-36.52
198.631	-34.95
198.896	-28.93
199.161	-21.54
199.425	-14.56
199.69	-3.93
199.955	-4.27
200.22	-6.64
200.484	-7.26
200.749	-8.52
201.014	-7.92
201.278	-8.25
201.543	-7.29
201.807	-7.88
202.072	-5.88
202.337	-5.27
202.601	-6.17
202.866	-7.14
203.13	-5.76
203.395	-9.24
203.659	-9.54
203.924	-11.07
204.189	-9.63
204.453	-7.87
204.717	-4.7
204.982	-2.78
205.246	-2.26
205.511	-0.28
205.775	-2.12
206.04	4.64
206.304	5.95
206.568	9.54
206.833	9.45
207.097	9.77
207.361	10.82
207.626	14.32
207.89	14.41
208.154	14.52
208.419	16.01
208.683	16.06
208.947	19.61
209.211	18.8
209.476	18.08
209.74	17.52
210.004	18.08
210.268	18.05
210.532	20.7
210.796	21.96
211.061	22.72
211.325	23.25
211.589	22.84
211.853	22.77
212.117	22.85
212.381	23.3
212.645	22.48
212.909	21.87
213.173	18.93
213.437	19.28
213.701	19.55
213.965	21.51
214.229	16.45
214.493	15.89
214.757	13.51
215.021	13.51
215.285	18.05
215.549	18.77
215.813	16.33
216.077	17.1
216.34	19.52
216.604	18.66
216.868	19.5
217.132	18.85
217.396	17.8
217.659	18.31
217.923	15.12
218.187	14.16
218.451	14.07
218.714	11.29
218.978	12.04
219.242	13.27
219.505	12.41
219.769	14.39
220.033	15.41
220.296	17.45
220.56	17.19
220.824	15.23
221.087	17.23
221.351	18.25
221.614	17.85
221.878	18.92
222.142	17
222.405	16.52
222.669	18.99
222.932	14.34
223.196	12.27
223.459	8.39
223.722	10.05
223.986	8.74
224.249	6.21
224.513	5.48
224.776	5.99
225.04	4.71
225.303	4.2
225.566	5.21
225.83	7.14
226.093	11.19
226.356	8.7
226.62	6.95
226.883	8.39
227.146	8.58
227.409	8.7
227.673	7.39
227.936	6.03
228.199	6.6
228.462	3.58
228.725	2.87
228.989	3.53
229.252	3.54
229.515	8.34
229.778	5.46
230.041	4.23
230.304	1.86
230.567	2.55
230.83	-0.01
231.093	4.49
231.356	5.08
231.619	13.07
231.882	12.13
232.145	14.22
232.408	13.68
232.671	13.49
232.934	12.21
233.197	11.78
233.46	11.27
233.723	12.46
233.986	10.5
234.249	8.23
234.512	11.41
234.775	14.93
235.037	14.88
235.3	14.19
235.563	14.33
235.826	14.09
236.089	15.92
236.351	15.4
236.614	18.32
236.877	18.34
237.14	19.96
237.402	20.01
237.665	13.93
237.928	14.96
238.19	13.06
238.453	16.57
238.716	15.12
238.978	14.46
239.241	12.63
239.503	15.78
239.766	9.04
240.029	7.35
240.291	10.67
240.554	10.22
240.816	9.55
241.079	9.14
241.341	9.22
241.604	8.35
241.866	4.92
242.129	6.85
242.391	8.26
242.653	7.29
242.916	6.17
243.178	5.56
243.441	7.22
243.703	4.82
243.965	3.76
244.228	3.97
244.49	3.8
244.752	4.51
245.015	4.89
245.277	6.45
245.539	5.31
245.801	6.85
246.064	7.07
246.326	5.75
246.588	5.99
246.85	10.26
247.112	10.68
247.374	12.11
247.637	13.61
247.899	14.1
248.161	13.83
248.423	9.34
248.685	11.45
248.947	10.04
249.209	11.72
249.471	12.14
249.733	12.23
249.995	11.06
250.257	10.03
250.519	8.49
250.781	11.22
251.043	9.44
251.305	11.26
251.567	12.84
251.829	14.41
252.091	14.63
252.353	10.98
252.615	11.23
252.876	8.13
253.138	6.71
253.4	2.27
253.662	3.13
253.924	4.94
254.185	6.66
254.447	7.92
254.709	6.24
254.971	5.6
255.232	8.84
255.494	7.2
255.756	4.65
256.017	5.17
256.279	5.85
256.541	4.57
256.802	3.24
257.064	4.77
257.326	3.06
257.587	3.59
257.849	5.55
258.11	9.18
258.372	9.88
258.633	11.22
258.895	10.04
259.156	8.22
259.418	6.5
259.679	1.12
259.941	-0.59
260.202	1.9
260.464	5.29
260.725	4.45
260.987	4.81
261.248	4.68
261.509	5.68
261.771	4.51
262.032	5.92
262.293	5.38
262.555	5.56
262.816	4.55
263.077	1.93
263.338	-1.8
263.6	-0.8
263.861	-1.3
264.122	-2.46
264.383	-0.53
264.645	0.98
264.906	0.69
265.167	2.12
265.428	2.67
265.689	3.99
265.95	1.63
266.211	2.61
266.473	2.8
266.734	-0.33
266.995	-2.33
267.256	-1.34
267.517	0.69
267.778	5.3
268.039	5.6
268.3	4.79
268.561	2.39
268.822	5.24
269.083	3.33
269.344	1.44
269.604	0.42
269.865	0.1
270.126	-3.46
270.387	-1.52
270.648	-0.66
270.909	0.21
271.17	-0.86
271.43	-2.38
271.691	-5.87
271.952	-7.28
272.213	-5.21
272.473	-8.58
272.734	-5.38
272.995	-4.68
273.256	-4.61
273.516	-2.71
273.777	-5.38
274.038	-3.62
274.298	-6.21
274.559	-7.58
274.82	-3.36
275.08	-0.95
275.341	1.86
275.601	0.1
275.862	-2.79
276.122	-1.26
276.383	-0.34
276.643	0.25
276.904	-1.3
277.164	2.42
277.425	4.4
277.685	8.53
277.946	9.89
278.206	10.43
278.467	10.34
278.727	10.76
278.987	9.02
279.248	9.35
279.508	10.5
279.768	14.24
280.029	16.33
280.289	12.18
280.549	11.69
280.81	10.65
281.07	10.8
281.33	12.31
281.59	10.11
281.851	12.56
282.111	11.83
282.371	11.94
282.631	13.48
282.891	12.34
283.151	11.33
283.412	9.11
283.672	9.21
283.932	10.11
284.192	12.09
284.452	9.84
284.712	8.68
284.972	6.86
285.232	4.29
285.492	5.31
285.752	2.87
286.012	8.19
286.272	11.12
286.532	9.44
286.792	10.64
287.052	13.27
287.312	14.46
287.571	12.58
287.831	12.78
288.091	9.37
288.351	10.58
288.611	14.81
288.871	15.01
289.13	14.85
289.39	11.02
289.65	12.02
289.91	10.11
290.17	12.73
290.429	14.51
290.689	11.36
290.949	8.17
291.208	7.47
291.468	9.74
291.728	10.13
291.987	12.22
292.247	10.08
292.506	12.36
292.766	14.37
293.026	13.08
293.285	13.2
293.545	16.11
293.804	15.68
294.064	12.64
294.323	8.65
294.583	8.65
294.842	8.12
295.102	7.89
295.361	7.76
295.621	8.88
295.88	9.11
296.139	9.35
296.399	10.76
296.658	6.44
296.917	5.41
297.177	3.18
297.436	3.48
297.695	3.26
297.955	4.71
298.214	3.57
298.473	4.82
298.732	7.73
298.992	11.27
299.251	12.06
299.51	7.97
299.769	9.54
300.028	8.42
300.287	8.47
300.547	8.47
300.806	6.73
301.065	11.39
301.324	12.74
301.583	8.76
301.842	5.34
302.101	3.58
302.36	5.37
302.619	4.94
302.878	4.82
303.137	3.04
303.396	3.74
303.655	5.54
303.914	2.22
304.173	2.85
304.432	1.73
304.691	5.22
304.95	3.01
305.208	7.23
305.467	8.84
305.726	7.52
305.985	8.04
306.244	10.92
306.503	10.99
306.761	10.62
307.02	7.06
307.279	6.49
307.537	7.56
307.796	4.21
308.055	2.33
308.314	4.12
308.572	1.59
308.831	2.67
309.09	3.51
309.348	5.63
309.607	5.03
309.865	9.67
310.124	9.35
310.382	10.06
310.641	10.1
310.9	8.71
311.158	9.87
311.417	9.89
311.675	9.29
311.933	10.62
312.192	12.73
312.45	12.65
312.709	11.35
312.967	9.53
313.226	10.07
313.484	9.03
313.742	8.39
314.001	5.68
314.259	1.2
314.517	0.25
314.776	1.09
315.034	4.47
315.292	2.92
315.55	0.14
315.809	0.22
316.067	-0.48
316.325	-3.17
316.583	-1.2
316.841	-1.73
317.1	-5.2
317.358	-9.74
317.616	-9.84
317.874	-11.05
318.132	-12.21
318.39	-11.59
318.648	-12.7
318.906	-12.71
319.164	-14.4
319.422	-15.01
319.68	-15.81
319.938	-15.77
320.196	-16.69
320.454	-15.52
320.712	-15.49
320.97	-13.73
321.228	-17.62
321.486	-14.95
321.744	-13.79
322.002	-10.29
322.26	-11.39
322.517	-10.36
322.775	-13.46
323.033	-16.6
323.291	-13.72
323.549	-9.99
323.806	-7.53
324.064	-6.05
324.322	-4.18
324.58	-6.05
324.837	-4.95
325.095	-5.9
325.353	-3.96
325.61	-1.95
325.868	-2.64
326.126	-0.27
326.383	-1.95
326.641	-2.52
326.898	-0.54
327.156	-1.05
327.413	-0.89
327.671	-0.56
327.928	1.73
328.186	1.76
328.443	0.93
328.701	4.82
328.958	4.9
329.216	6.01
329.473	3.61
329.731	4.17
329.988	4.2
330.245	5.76
330.503	6.85
330.76	7.33
331.017	11.37
331.275	8.59
331.532	7.85
331.789	5.28
332.047	5.21
332.304	2.1
332.561	2.38
332.818	1.41
333.076	4.19
333.333	6.07
333.59	6.18
333.847	7.22
334.104	5.95
334.361	5.06
334.618	5.71
334.876	2.64
335.133	3.84
335.39	1.62
335.647	3.56
335.904	-0.68
336.161	-3
336.418	-2.81
336.675	-8.28
336.932	-6.6
337.189	-8.35
337.446	-9.22
337.703	-10.15
337.96	-14.88
338.216	-14.05
338.473	-17.85
338.73	-17.41
338.987	-18.03
339.244	-15.11
339.501	-17.72
339.757	-17.85
340.014	-18.29
340.271	-17.72
340.528	-15.94
340.785	-10.47
341.041	-11.89
341.298	-14.67
341.555	-15.33
341.811	-15.32
342.068	-17.25
342.325	-16.72
342.581	-15.21
342.838	-14.2
343.094	-15.42
343.351	-14.69
343.608	-18.07
343.864	-15.37
344.121	-13.22
344.377	-13.98
344.634	-13.85
344.89	-14.16
345.147	-13.5
345.403	-13.1
345.66	-13.54
345.916	-11.72
346.172	-12.48
346.429	-13.31
346.685	-15.24
346.942	-14.64
347.198	-17.89
347.454	-14.85
347.711	-13.53
347.967	-16.23
348.223	-16.71
348.48	-17.17
348.736	-15.4
348.992	-16.02
349.248	-14.03
349.504	-14.19
349.761	-14.73
350.017	-14.26
350.273	-13.81
350.529	-12.95
350.785	-11.89
351.041	-10.81
351.297	-8.68
351.554	-9.87
351.81	-12.3
352.066	-14.12
352.322	-13.95
352.578	-12.07
352.834	-13.82
353.09	-12.58
353.346	-12.17
353.602	-13.08
353.858	-13.28
354.114	-13.71
354.369	-11.9
354.625	-8.81
354.881	-10
355.137	-7.07
355.393	-7.26
355.649	-7.52
355.905	-5.28
356.16	-2.59
356.416	-2.6
356.672	-9.92
356.928	-9.68
357.183	-9.91
357.439	-10.4
357.695	-11.12
357.951	-6.13
358.206	-6.97
358.462	-9.25
358.718	-11.32
358.973	-10.8
359.229	-11.47
359.484	-10.13
359.74	-7.28
359.996	-6.9
360.251	-3.74
360.507	-4.52
360.762	-4.04
361.018	-2.34
361.273	-4.4
361.529	-2.94
361.784	-2.43
362.04	-0.01
362.295	1.18
362.55	3.43
362.806	5.28
363.061	4.1
363.316	5.22
363.572	6.7
363.827	8.45
364.082	4.97
364.338	5.63
364.593	6.51
364.848	8.51
365.104	6.85
365.359	9.34
365.614	10.32
365.869	5.56
366.124	6.04
366.38	5.72
366.635	6.77
366.89	8.43
367.145	8.36
367.4	12.29
367.655	13.33
367.91	14.01
368.165	11.72
368.42	8.48
368.675	9.76
368.93	10.19
369.185	8.08
369.44	8.43
369.695	10.05
369.95	7.19
370.205	5.32
370.46	2.19
370.715	0.61
370.97	2.02
371.225	1.56
371.48	2.99
371.734	3.25
371.989	5.17
372.244	3.18
372.499	4.56
372.754	2.63
373.008	1.34
373.263	-1.75
373.518	0.51
373.773	0.68
374.027	-1.32
374.282	1.99
374.537	3.24
374.791	3.66
375.046	2.37
375.301	0.82
375.555	-1.07
375.81	1.12
376.064	2.62
376.319	7.26
376.573	5.32
376.828	1.06
377.082	6.23
377.337	4.2
377.591	1.87
377.846	2.07
378.1	4.28
378.355	4.88
378.609	4
378.863	0.86
379.118	2.16
379.372	0.39
379.627	-2.26
379.881	-3.11
380.135	-1.81
380.389	-3.05
380.644	-1
380.898	-0.59
381.152	-0.18
381.407	-2.71
381.661	-0.46
381.915	2.06
382.169	1.6
382.423	-0.09
382.677	-2.84
382.932	-1.41
383.186	-1.72
383.44	-1.86
383.694	0.29
383.948	-2.01
384.202	-3.84
384.456	-1.83
384.71	0.86
384.964	-0.78
385.218	0.89
385.472	1.16
385.726	1.99
385.98	1.47
386.234	1.13
386.488	-0.79
386.742	0.64
386.996	-1.46
387.249	-1.21
387.503	1.93
387.757	2.48
388.011	3.57
388.265	5.04
388.518	4.57
388.772	7.13
389.026	7.85
389.28	5.8
389.533	3.01
389.787	5.76
390.041	2.44
390.295	3.37
390.548	3.39
390.802	5.89
391.055	4.71
391.309	4.68
391.563	1.61
391.816	2.42
392.07	1.77
392.323	3.74
392.577	3.45
392.83	3.84
393.084	9.26
393.337	14.03
393.591	15.59
393.844	16.6
394.098	20.9
394.351	25.25
394.604	27.1
394.858	28.56
395.111	28.94
395.364	26.24
395.618	27.71
395.871	25.35
396.124	24.13
396.378	23.14
396.631	22.54
396.884	20.93
397.137	21.21
397.391	22.36
397.644	18.05
397.897	19.37
398.15	20.09
398.403	23.37
398.657	22.09
398.91	21.42
399.163	22.37
399.416	21.92
399.669	20.04
399.922	20.13
400.175	18.69
400.428	19.75
400.681	22.35
400.934	20.62
401.187	22.48
401.44	23.58
401.693	23.28
401.946	20.64
402.199	16.73
402.452	15.84
402.704	12.37
402.957	11.68
403.21	12.91
403.463	12.54
403.716	14
403.969	15.12
404.221	14.85
404.474	16.63
404.727	19.31
404.98	23.41
405.232	24.24
405.485	27.09
405.738	29.27
405.99	29.08
406.243	30.01
406.496	30.94
406.748	31.91
407.001	29.93
407.253	31.94
407.506	33.93
407.759	34.01
408.011	29.23
408.264	28.37
408.516	26.89
408.769	21.58
409.021	18.46
409.274	16.74
409.526	17.78
409.778	14.76
410.031	16.87
410.283	16.7
410.536	23.19
410.788	20.62
411.04	20.78
411.293	22.65
411.545	22.84
411.797	21.64
412.049	21.38
412.302	22.11
412.554	22.53
412.806	18.98
413.058	18.07
413.311	17.53
413.563	15.8
413.815	15.66
414.067	12.81
414.319	12.11
414.571	12.04
414.823	10.83
415.075	8.51
415.328	8.32
415.58	10.25
415.832	13.5
416.084	14.7
416.336	12.55
416.588	17.11
416.84	14.84
417.091	15.57
417.343	11.52
417.595	14.13
417.847	14.39
418.099	14.65
418.351	12.9
418.603	16.33
418.855	17.59
419.106	17.1
419.358	16.22
419.61	16.78
419.862	18.2
420.114	15.91
420.365	15.92
420.617	17.56
420.869	14.56
421.12	14.79
421.372	17.62
421.624	16.66
421.875	16.42
422.127	12.35
422.379	12.92
422.63	16.24
422.882	15.62
423.133	15.21
423.385	14.96
423.636	15.88
423.888	17.87
424.139	20.2
424.391	17.78
424.642	16.6
424.894	16.45
425.145	16.53
425.396	14.54
425.648	17.37
425.899	15.82
426.151	16.39
426.402	14.45
426.653	14.62
426.905	12.73
427.156	11.42
427.407	11.23
427.658	10.62
427.91	8.33
428.161	7.99
428.412	10.13
428.663	12.27
428.914	12.84
429.166	12.19
429.417	13.64
429.668	12.6
429.919	11.54
430.17	10.03
430.421	10.51
430.672	13.35
430.923	14.01
431.174	13.59
431.425	17.01
431.676	21.44
431.927	25.44
432.178	34.78
432.429	45
432.68	50.24
432.931	58.91
433.182	65.75
433.433	64.87
433.683	68.14
433.934	68.74
434.185	69.81
434.436	67.45
434.687	69.41
434.937	70.96
435.188	68.07
435.439	66.97
435.69	68.81
435.94	67.93
436.191	68.5
436.442	70.2
436.692	68.34
436.943	64.98
437.194	62.06
437.444	64.85
437.695	69.44
437.945	71.49
438.196	68.48
438.447	66.58
438.697	65.6
438.948	63.94
439.198	57.53
439.449	47.75
439.699	41.22
439.949	31.51
440.2	21.04
440.45	15.4
440.701	8.12
440.951	3.79
441.201	2.06
441.452	-1.88
441.702	-5.94
441.952	-6.73
442.203	-6.67
442.453	-9.72
442.703	-7.91
442.953	-6.37
443.204	-5.61
443.454	-7.88
443.704	-8.2
443.954	-11.91
444.204	-11.76
444.455	-10.1
444.705	-8.23
444.955	-7.78
445.205	-9.46
445.455	-12.77
445.705	-13.4
445.955	-13.19
446.205	-12.28
446.455	-11.4
446.705	-9.63
446.955	-8.27
447.205	-7.83
447.455	-6.44
447.705	-7.74
447.955	-10.04
448.205	-9.39
448.454	-10.71
448.704	-10.37
448.954	-13.1
449.204	-11.42
449.454	-9.74
449.704	-11.16
449.953	-11.74
450.203	-8.4
450.453	-11.31
450.703	-9.6
450.952	-10.69
451.202	-9.2
451.452	-9.09
451.701	-6.12
451.951	-4.22
452.201	-4.62
452.45	-4.6
452.7	-2.98
452.949	-2.94
453.199	-2.25
453.448	0.09
453.698	2.77
453.947	0.76
454.197	-0.23
454.446	-1.6
454.696	1.8
454.945	2.54
455.195	0.51
455.444	2.67
455.693	7.09
455.943	3.52
456.192	5.02
456.442	3.69
456.691	5.06
456.94	4.43
457.189	2.49
457.439	4.53
457.688	7.8
457.937	5.98
458.186	7.12
458.436	7.21
458.685	9.48
458.934	8.01
459.183	8.27
459.432	9.69
459.681	9.36
459.93	7.98
460.179	6.38
460.429	4.63
460.678	7.75
460.927	10.79
461.176	8.22
461.425	7.18
461.674	9.79
461.923	9.87
462.172	8.96
462.42	5.59
462.669	7.02
462.918	7.66
463.167	7.18
463.416	5.3
463.665	6.92
463.914	9.12
464.162	8.08
464.411	9.52
464.66	10.75
464.909	10.25
465.158	10.06
465.406	8.24
465.655	9.51
465.904	11.25
466.152	11.95
466.401	10.06
466.65	11.8
466.898	9.45
467.147	5.25
467.395	5.05
467.644	6.88
467.893	7.44
468.141	8.38
468.39	4.61
468.638	2.47
468.887	1.86
469.135	0.64
469.384	1.07
469.632	2.85
469.88	2.51
470.129	4.44
470.377	1.65
470.626	4.44
470.874	5.07
471.122	5.46
471.371	3.63
471.619	1.04
471.867	4.02
472.115	2.77
472.364	0.2
472.612	3.73
472.86	3.63
473.108	4.52
473.356	5.02
473.605	3.01
473.853	0.31
474.101	0.44
474.349	-0.54
474.597	2.39
474.845	2.76
475.093	0.91
475.341	-1.65
475.589	-1.45
475.837	-0.7
476.085	1.63
476.333	0.95
476.581	1.95
476.829	2.01
477.077	3.58
477.325	2.12
477.573	5.8
477.821	5.81
478.069	7.63
478.317	8.1
478.564	11.57
478.812	10.21
479.06	10.85
479.308	10.21
479.555	11.5
479.803	11.16
480.051	15.8
480.299	16.35
480.546	17.88
480.794	16.06
481.042	17.61
481.289	20.78
481.537	26.5
481.784	29.44
482.032	36.28
482.28	39.23
482.527	42.09
482.775	47.24
483.022	54.41
483.27	60.27
483.517	68.56
483.765	71.28
484.012	74.82
484.259	78.37
484.507	86
484.754	90.4
485.002	94.16
485.249	96.68
485.496	102.26
485.744	105.28
485.991	107.87
486.238	109.04
486.486	116.01
486.733	121.45
486.98	128.57
487.227	128.72
487.474	133.06
487.722	137.66
487.969	137
488.216	138.73
488.463	142.95
488.71	143.5
488.957	143.58
489.204	142.46
489.451	143.13
489.699	141.13
489.946	138.3
490.193	136.76
490.44	133.92
490.687	131.77
490.934	127.88
491.18	121.78
491.427	121.01
491.674	122.41
491.921	120.37
492.168	116.74
492.415	111.13
492.662	110.69
492.909	110.3
493.155	107.67
493.402	104.28
493.649	100.62
493.896	100.51
494.142	96.01
494.389	94.33
494.636	89.35
494.883	85.62
495.129	82.18
495.376	76.96
495.623	78.02
495.869	78.35
496.116	76.25
496.362	74.62
496.609	75.32
496.855	78.04
497.102	75.71
497.348	73.6
497.595	73.06
497.841	75.57
498.088	72.95
498.334	70.63
498.581	66.78
498.827	65.77
499.074	64.23
499.32	63.65
499.566	65.52
499.813	64.25
500.059	62.46
500.305	61.21
500.552	58.57
500.798	54.39
501.044	56.69
501.29	53.88
501.537	48.3
501.783	48.34
502.029	48.95
502.275	45.19
502.521	42.82
502.767	43.38
503.013	45.49
503.26	40.44
503.506	34.65
503.752	34.41
503.998	32.42
504.244	31.3
504.49	27.44
504.736	28.07
504.982	25.87
505.228	26.15
505.474	25.43
505.72	25.79
505.966	23.6
506.211	26.78
506.457	24.62
506.703	20.69
506.949	17.38
507.195	13.92
507.441	8.51
507.686	9.54
507.932	8.35
508.178	8.62
508.424	7.06
508.669	4.21
508.915	4.73
509.161	6.71
509.406	7.8
509.652	5.46
509.898	9.57
510.143	10.8
510.389	8.62
510.634	3.6
510.88	7.09
511.125	9.38
511.371	10.06
511.616	10.1
511.862	6.24
512.107	1.9
512.353	3.18
512.598	4.12
512.844	2.33
513.089	-1.48
513.335	-0.9
513.58	-0.47
513.825	-0.3
514.071	-0.72
514.316	1.02
514.561	0.4
514.806	-0.26
515.052	4.01
515.297	3.3
515.542	4.43
515.787	5.28
516.033	8.44
516.278	9.46
516.523	9.5
516.768	6.76
517.013	2.65
517.258	2.99
517.503	1.64
517.748	1.98
517.993	2.19
518.238	1.61
518.483	-0.43
518.728	-0.88
518.973	-4.61
519.218	-4.77
519.463	-2.4
519.708	-2.58
519.953	-5.68
520.198	-5.96
520.443	-4.23
520.688	-0.18
520.933	-2.08
521.177	-2.62
521.422	-4.94
521.667	-2
521.912	-2.54
522.157	-5.64
522.401	-2.37
522.646	-3.06
522.891	-1.74
523.135	-1.73
523.38	-2.88
523.625	-4.15
523.869	-3.2
524.114	-2.79
524.358	-3.1
524.603	-1.76
524.848	-5.38
525.092	-6.42
525.337	-6.13
525.581	-4.67
525.826	-1.15
526.07	1.02
526.315	1.87
526.559	3.01
526.803	2.01
527.048	4.9
527.292	6.96
527.537	7.81
527.781	8.5
528.025	6.47
528.269	7.26
528.514	9.61
528.758	9.76
529.002	11.19
529.247	14.46
529.491	15.19
529.735	22.89
529.979	24.45
530.223	28.64
530.467	26.77
530.712	26.61
530.956	27.82
531.2	30.64
531.444	30.82
531.688	34.83
531.932	37.68
532.176	39.61
532.42	43.63
532.664	48.1
532.908	49.87
533.152	52.66
533.396	56.02
533.64	58.85
533.884	62.48
534.128	68.95
534.371	78.34
534.615	88.02
534.859	96.7
535.103	106.54
535.347	117.32
535.59	131.12
535.834	141.04
536.078	158.98
536.322	178.43
536.565	202.33
536.809	226.22
537.053	258.09
537.296	291.03
537.54	333.56
537.784	381.03
538.027	438.08
538.271	496.88
538.514	558.3
538.758	618.29
539.001	676.49
539.245	733.97
539.488	790.57
539.732	848.12
539.975	901.59
540.219	955.12
540.462	1006.71
540.706	1058.71
540.949	1105.63
541.192	1152.54
541.436	1209.42
541.679	1271.82
541.922	1344.77
542.166	1421.6
542.409	1511.64
542.652	1608.25
542.895	1704.64
543.139	1786.94
543.382	1861.07
543.625	1920.27
543.868	1971.44
544.111	2009.78
544.354	2039.87
544.598	2058.29
544.841	2065.99
545.084	2058.32
545.327	2042.85
545.57	2020.76
545.813	1992.13
546.056	1955.91
546.299	1920.51
546.542	1885.85
546.785	1851.3
547.028	1816.64
547.271	1778.98
547.514	1743.81
547.756	1703.99
547.999	1667.37
548.242	1628.52
548.485	1589.15
548.728	1550.67
548.971	1499.77
549.213	1446.74
549.456	1375.47
549.699	1295.44
549.942	1205.41
550.184	1107.02
550.427	1006.97
550.67	919.01
550.912	836.43
551.155	766.05
551.398	700.09
551.64	642.84
551.883	590.36
552.125	542.4
552.368	501.53
552.61	463.16
552.853	432.54
553.095	400.76
553.338	372.37
553.58	347.91
553.823	322.01
554.065	302.14
554.308	276.14
554.55	253.59
554.792	232.84
555.035	213.29
555.277	195.14
555.519	181.01
555.762	166.6
556.004	153.55
556.246	138.72
556.488	130.67
556.731	116.55
556.973	109.57
557.215	98.98
557.457	92.2
557.699	87.32
557.941	78.31
558.183	71.67
558.426	69.37
558.668	60.58
558.91	57.95
559.152	53.36
559.394	48.39
559.636	47.42
559.878	45.48
560.12	42.47
560.362	39.23
560.604	36.84
560.845	33.21
561.087	30.18
561.329	30.73
561.571	26.93
561.813	26.2
562.055	24.28
562.297	24.69
562.538	23.82
562.78	26.68
563.022	21.99
563.264	21.53
563.505	21.49
563.747	21.59
563.989	18.52
564.23	17.92
564.472	15.56
564.714	17.87
564.955	17.17
565.197	13.5
565.438	14.76
565.68	17.92
565.921	14.04
566.163	15.66
566.404	14.28
566.646	15.73
566.887	15.51
567.129	15.5
567.37	14.12
567.612	16.95
567.853	14.55
568.094	14.69
568.336	15.38
568.577	15.35
568.818	14.86
569.06	11.62
569.301	9.26
569.542	9.38
569.783	9.16
570.025	9.17
570.266	9.07
570.507	11.95
570.748	10.9
570.989	11.76
571.23	15.37
571.472	14.89
571.713	13.58
571.954	14.63
572.195	13.98
572.436	16.93
572.677	22.56
572.918	30.45
573.159	36.62
573.4	46.93
573.641	56.22
573.882	66.67
574.123	73.92
574.364	78.8
574.604	87.3
574.845	95.43
575.086	105.95
575.327	118.87
575.568	130.25
575.809	142.76
576.049	153.96
576.29	163.18
576.531	178.61
576.771	193.33
577.012	205.82
577.253	217
577.494	225.33
577.734	233.15
577.975	241.17
578.215	247.97
578.456	254.44
578.697	262.07
578.937	272.41
579.178	279.2
579.418	284.41
579.659	291.68
579.899	296.26
580.14	299.94
580.38	300.65
580.62	301.35
580.861	303.25
581.101	303.1
581.342	301.9
581.582	297.55
581.822	301.77
582.063	300.4
582.303	301.29
582.543	299.37
582.783	297.25
583.024	296.74
583.264	296.87
583.504	296.45
583.744	301.19
583.984	301.99
584.224	305.83
584.465	308.18
584.705	309.96
584.945	313.87
585.185	316.26
585.425	318.05
585.665	318.85
585.905	317.53
586.145	315.28
586.385	311.52
586.625	312.97
586.865	310.85
587.105	307.82
587.345	302.54
587.585	299.57
587.824	296.24
588.064	292.75
588.304	288.11
588.544	284.66
588.784	281.97
589.024	285
589.263	284.03
589.503	285.27
589.743	289.9
589.982	291.94
590.222	295.21
590.462	293.04
590.701	290.2
590.941	289.06
591.181	282.02
591.42	274.59
591.66	268.22
591.899	262.42
592.139	254.11
592.378	248.75
592.618	240.93
592.857	235.15
593.097	231.11
593.336	227.5
593.576	224.29
593.815	223.02
594.055	220.3
594.294	219.51
594.533	217.03
594.773	217.53
595.012	217.23
595.251	217.68
595.491	219.64
595.73	223.51
595.969	225.28
596.208	226.62
596.447	229.68
596.687	229.07
596.926	226.52
597.165	216.93
597.404	213.6
597.643	206.03
597.882	200.93
598.121	196.8
598.36	193.78
598.599	190.59
598.838	186.37
599.077	179.62
599.316	176.28
599.555	174.49
599.794	172.24
600.033	172.31
600.272	172.03
600.511	169.03
600.75	169.58
600.989	170.09
601.228	168.29
601.466	166.61
601.705	165.55
601.944	165.11
602.183	165.68
602.422	162.92
602.66	159.42
602.899	155.75
603.138	151.71
603.376	147.18
603.615	142.18
603.854	136.3
604.092	133.78
604.331	133.4
604.569	134.56
604.808	134.17
605.047	137.2
605.285	140.09
605.524	143.4
605.762	147.52
606	158.46
606.239	171.65
606.477	188.56
606.716	207.84
606.954	240.1
607.193	281.95
607.431	338.3
607.669	407.74
607.908	488.86
608.146	577.47
608.384	663.4
608.622	745.91
608.861	821.53
609.099	890.26
609.337	953.51
609.575	1010.51
609.813	1063.99
610.052	1110.35
610.29	1146.28
610.528	1178.71
610.766	1210.98
611.004	1240.49
611.242	1265.47
611.48	1287.61
611.718	1305.58
611.956	1325.23
612.194	1339.01
612.432	1350.53
612.67	1359.64
612.908	1369.58
613.146	1371.15
613.384	1369.83
613.621	1364.22
613.859	1355.75
614.097	1338.62
614.335	1310.87
614.573	1273.25
614.811	1219.2
615.048	1151.59
615.286	1074.75
615.524	989.38
615.761	901.52
615.999	822.69
616.237	749.76
616.474	685.16
616.712	625.4
616.95	568.52
617.187	517.66
617.425	475.96
617.662	440.26
617.9	405.59
618.137	374.15
618.375	344.91
618.612	317.74
618.85	296.14
619.087	278.44
619.325	258.28
619.562	240.85
619.799	224.69
620.037	213.73
620.274	200.83
620.511	193.61
620.749	184.6
620.986	179.7
621.223	173.41
621.461	170.42
621.698	169.89
621.935	167.63
622.172	166
622.409	168.43
622.647	168.86
622.884	167.55
623.121	171.86
623.358	169.8
623.595	169.93
623.832	171.44
624.069	171.26
624.306	175.48
624.543	177.91
624.78	179.6
625.017	179.99
625.254	183.83
625.491	185.48
625.728	188.92
625.965	191
626.202	191.37
626.438	190.74
626.675	191.97
626.912	196.97
627.149	200.5
627.386	203.15
627.622	207.02
627.859	212.45
628.096	216.71
628.333	218.81
628.569	222.73
628.806	227
629.043	226.91
629.279	228.07
629.516	229.25
629.752	223.82
629.989	220.78
630.225	215.82
630.462	211.91
630.699	209.21
630.935	204.8
631.171	196.4
631.408	192.2
631.644	183.22
631.881	176.08
632.117	168.37
632.354	164.8
632.59	158.68
632.826	153.67
633.063	148.31
633.299	143.88
633.535	136.91
633.771	131.29
634.008	127.24
634.244	120.18
634.48	111.59
634.716	104.65
634.953	94.38
635.189	83.86
635.425	76.14
635.661	72.11
635.897	63.26
636.133	56.64
636.369	50.59
636.605	40.81
636.841	34.4
637.077	32.43
637.313	30.66
637.549	30.69
637.785	28.2
638.021	28.14
638.257	26.01
638.493	28.42
638.729	24.26
638.965	28.31
639.2	29.65
639.436	28.04
639.672	26.5
639.908	24.41
640.144	27.96
640.379	30.57
640.615	28.33
640.851	29.87
641.086	30.92
641.322	28.3
641.558	26.84
641.793	27.75
642.029	26.12
642.264	25.99
642.5	26.87
642.736	23.08
642.971	23.13
643.207	21.06
643.442	19.16
643.678	19.69
643.913	21.92
644.148	23.23
644.384	25.12
644.619	25.1
644.855	25.53
645.09	24.66
645.325	23.96
645.561	26
645.796	23.32
646.031	28.75
646.266	24.95
646.502	23.62
646.737	28.81
646.972	30.45
647.207	33.66
647.442	31.92
647.678	29.18
647.913	34.47
648.148	37.65
648.383	37.5
648.618	39.86
648.853	42.02
649.088	45.1
649.323	48.68
649.558	50.67
649.793	51.2
650.028	53.01
650.263	49.93
650.498	53.49
650.733	53.25
650.968	51.17
651.202	53.25
651.437	50.34
651.672	46.66
651.907	44.98
652.142	46.48
652.376	48.07
652.611	49.41
652.846	49.58
653.081	49.55
653.315	46.1
653.55	45.79
653.785	45.18
654.019	43.76
654.254	40.94
654.488	39.68
654.723	35.8
654.958	33.62
655.192	30.29
655.427	24.32
655.661	25.6
655.896	26.08
656.13	26.29
656.364	22.24
656.599	17.42
656.833	19.51
657.068	22.24
657.302	21.9
657.536	20.26
657.771	20.12
658.005	20.8
658.239	23
658.474	20.81
658.708	23.66
658.942	24.71
659.176	24.52
659.41	22.33
659.645	22.97
659.879	22.8
660.113	19.47
660.347	18.72
660.581	18.28
660.815	19.38
661.049	18.04
661.283	15.23
661.517	14.86
661.751	12.86
661.985	11.62
662.219	12.34
662.453	9.98
662.687	12.47
662.921	7.48
663.155	7.44
663.389	2.73
663.622	2.41
663.856	5.51
664.09	2.46
664.324	0.52
664.558	1
664.791	0.18
665.025	0
665.259	0.46
665.492	-2.06
665.726	0.82
665.96	-0.52
666.193	-2.76
666.427	-2.63
666.661	-3.78
666.894	-5.7
667.128	-6.98
667.361	-4.62
667.595	-4.86
667.828	-4.76
668.062	-5.71
668.295	-3.49
668.529	-3.06
668.762	-2.85
668.995	-3.37
669.229	0.57
669.462	1.03
669.695	2.28
669.929	0.47
670.162	1.65
670.395	-0.7
670.629	0.43
670.862	2.31
671.095	-0.81
671.328	-1.31
671.561	-4.99
671.795	-3.78
672.028	-3.05
672.261	-1.85
672.494	-2
672.727	-2.21
672.96	-1.06
673.193	-2.35
673.426	1.73
673.659	2.58
673.892	2.37
674.125	2.87
674.358	1.39
674.591	0.76
674.824	0.31
675.057	-1.34
675.29	-1.71
675.523	-0.89
675.755	-1.71
675.988	-1.51
676.221	2.15
676.454	1.43
676.687	3.36
676.919	1.63
677.152	2.79
677.385	2.98
677.617	4.54
677.85	5.8
678.083	3.62
678.315	6.21
678.548	5.24
678.78	5.93
679.013	4.86
679.246	6.27
679.478	5.26
679.711	3.31
679.943	5.14
680.175	1.13
680.408	6.16
680.64	1.99
680.873	3.56
681.105	6.21
681.338	9.74
681.57	10.83
681.802	11.55
682.034	11.5
682.267	15.12
682.499	17.13
682.731	14.09
682.964	13.53
683.196	12.75
683.428	11.75
683.66	10.31
683.892	14.19
684.124	18.51
684.356	21.42
684.589	23.14
684.821	22.21
685.053	22.81
685.285	25.63
685.517	28.31
685.749	29.17
685.981	30.19
686.213	31.94
686.445	33.23
686.676	31.81
686.908	34.15
687.14	33.39
687.372	34.46
687.604	30.63
687.836	33.41
688.068	32.7
688.299	31.15
688.531	27.39
688.763	30.54
688.995	29.25
689.226	33.22
689.458	31.95
689.69	30.22
689.921	29.64
690.153	30.7
690.384	32.38
690.616	30.9
690.848	31.95
691.079	25.68
691.311	23.68
691.542	20.27
691.774	16.71
692.005	18.59
692.237	21.16
692.468	19.08
692.699	16.22
692.931	15.14
693.162	11.89
693.393	9.46
693.625	7.63
693.856	7.23
694.087	7.24
694.319	8.45
694.55	8.18
694.781	6.2
695.012	4.74
695.243	1.78
695.475	1.33
695.706	0.91
695.937	0.67
696.168	-0.76
696.399	-3.69
696.63	-5.19
696.861	-4.77
697.092	0.46
697.323	2.32
697.554	2.03
697.785	1.99
698.016	2.65
698.247	2.62
698.478	3.23
698.709	3.78
698.94	7.56
699.171	7.18
699.401	2.3
699.632	3.69
699.863	0.77
700.094	1.72
700.325	6.86
700.555	8.52
700.786	9.61
701.017	11.07
701.247	11.05
701.478	11.59
701.709	12.2
701.939	12.57
702.17	16.11
702.401	21.34
702.631	23.43
702.862	23.85
703.092	21.9
703.323	28.76
703.553	33.14
703.784	36.68
704.014	39.37
704.244	36.76
704.475	39.21
704.705	42.43
704.936	46.07
705.166	49.12
705.396	55.13
705.627	58.17
705.857	63.26
706.087	66.08
706.317	66.75
706.548	69.24
706.778	70.92
707.008	73.81
707.238	75.79
707.468	74.43
707.698	74.16
707.928	75.13
708.158	75.28
708.389	74.76
708.619	73.87
708.849	74.87
709.079	79.33
709.309	78.23
709.539	76.59
709.768	78.45
709.998	82.68
710.228	82.87
710.458	81.29
710.688	76.45
710.918	74.32
711.148	72.03
711.378	69.84
711.607	64.95
711.837	64.38
712.067	61.35
712.297	56.5
712.526	51.3
712.756	48.44
712.986	42.52
713.215	36.54
713.445	34.52
713.674	33.17
713.904	30.6
714.134	32.59
714.363	31.15
714.593	28.94
714.822	27.09
715.052	25.54
715.281	24.61
715.511	22.96
715.74	20.96
715.969	16.77
716.199	13.26
716.428	11.6
716.657	8.9
716.887	7.45
717.116	1.72
717.345	1.69
717.575	-1.65
717.804	-1.23
718.033	-3.09
718.262	-3.9
718.492	-2.6
718.721	-2.05
718.95	-3.99
719.179	-5.82
719.408	-5.16
719.637	-8.42
719.866	-10.09
720.095	-10.02
720.324	-9.56
720.553	-13.63
720.782	-15.4
721.011	-16.12
721.24	-19.58
721.469	-21.23
721.698	-21.18
721.927	-21.56
722.156	-22.57
722.385	-22.48
722.613	-19.07
722.842	-18.13
723.071	-13.33
723.3	-12.41
723.529	-14.13
723.757	-14.43
723.986	-17.51
724.215	-17.57
724.443	-15.6
724.672	-12.48
724.901	-11.01
725.129	-9.23
725.358	-7.36
725.586	-11.55
725.815	-12.68
726.043	-14.68
726.272	-16.92
726.5	-17.38
726.729	-15.83
726.957	-19.29
727.186	-19.41
727.414	-18
727.642	-17.2
727.871	-15.11
728.099	-13.83
728.327	-13.54
728.556	-11.38
728.784	-10.5
729.012	-11.28
729.241	-8.94
729.469	-9.6
729.697	-13.36
729.925	-12.08
730.153	-14.4
730.381	-15.27
730.61	-14.66
730.838	-15.08
731.066	-14.65
731.294	-14.56
731.522	-19.15
731.75	-23.95
731.978	-24.95
732.206	-25.07
732.434	-27.45
732.662	-23.43
732.89	-24.16
733.118	-24.69
733.346	-24.52
733.573	-24.07
733.801	-24.31
734.029	-17.47
734.257	-17.58
734.485	-15.87
734.712	-12.51
734.94	-16.18
735.168	-14.59
735.396	-13.43
735.623	-14.14
735.851	-12.65
736.078	-10.76
736.306	-11.3
736.534	-11.79
736.761	-9.89
736.989	-12.92
737.216	-14.74
737.444	-15.08
737.671	-13.12
737.899	-9.07
738.126	-9.57
738.354	-9.21
738.581	-6.94
738.809	-5.82
739.036	-8.95
739.263	-9.41
739.491	-11.11
739.718	-11.97
739.945	-8.01
740.173	-5.3
740.4	-4.26
740.627	-5.27
740.854	-5.22
741.081	-8.01
741.309	-9.38
741.536	-11.95
741.763	-12.5
741.99	-9.29
742.217	-9.83
742.444	-11.59
742.671	-11.09
742.898	-12.05
743.125	-14.11
743.352	-16.67
743.579	-16.31
743.806	-17.3
744.033	-13.99
744.26	-12.58
744.487	-12.93
744.714	-13.77
744.941	-15.29
745.167	-11.28
745.394	-12.88
745.621	-13.48
745.848	-12.91
746.075	-8.9
746.301	-4.72
746.528	0.05
746.755	-1.86
746.981	-1.94
747.208	-0.3
747.435	2.2
747.661	2.62
747.888	5.12
748.114	4.08
748.341	7.04
748.567	8.27
748.794	5.14
749.02	4.25
749.247	1.41
749.473	1.16
749.7	1.27
749.926	0.98
750.152	4.82
750.379	6
750.605	5.8
750.831	5.57
751.058	3.08
751.284	2.32
751.51	3.95
751.737	5.34
751.963	4.04
752.189	2.16
752.415	2.64
752.641	2.75
752.867	2.23
753.094	-0.79
753.32	-2.79
753.546	-4.53
753.772	-1.92
753.998	-3.88
754.224	-5.39
754.45	-5.43
754.676	-5.96
754.902	-7.46
755.128	-7.94
755.354	-8.14
755.579	-7.49
755.805	-4.91
756.031	-5.99
756.257	-6.48
756.483	-8.18
756.709	-9.95
756.934	-9.43
757.16	-13.57
757.386	-12.45
757.612	-15.34
757.837	-15.45
758.063	-12.5
758.289	-10.54
758.514	-12.74
758.74	-15.75
758.965	-18.05
759.191	-16.24
759.416	-14.98
759.642	-14.48
759.868	-13.72
760.093	-11.88
760.318	-13.63
760.544	-14.16
760.769	-15.2
760.995	-15.61
761.22	-15.33
761.445	-14.29
761.671	-11.22
761.896	-8.06
762.121	-7.11
762.347	-7.77
762.572	-10.77
762.797	-10.97
763.022	-11.63
763.248	-6.24
763.473	-4.03
763.698	-4.69
763.923	-4.12
764.148	-2.35
764.373	-5.29
764.598	-2.26
764.823	-1.34
765.048	-4.84
765.273	-8.2
765.498	-7.68
765.723	-7.58
765.948	-5.69
766.173	-8.02
766.398	-6.41
766.623	-8.44
766.848	-9.59
767.073	-10.52
767.298	-10.71
767.522	-11.53
767.747	-10.17
767.972	-10.51
768.197	-10.25
768.421	-12.6
768.646	-17.14
768.871	-21.31
769.095	-20.61
769.32	-20.13
769.545	-19.64
769.769	-17.93
769.994	-15.77
770.218	-18.11
770.443	-17.42
770.667	-16.81
770.892	-17.38
771.116	-18.85
771.341	-16.05
771.565	-16.48
771.79	-16.57
772.014	-16.48
772.238	-15.33
772.463	-13.38
772.687	-12.93
772.911	-13.71
773.136	-15.71
773.36	-15.64
773.584	-13.19
773.808	-14.66
774.033	-14
774.257	-14.21
774.481	-14.28
774.705	-15.67
774.929	-15.53
775.153	-16.32
775.377	-15.4
775.602	-14.93
775.826	-12.95
776.05	-11.67
776.274	-12.18
776.498	-11.14
776.722	-12.07
776.945	-11.18
777.169	-13.96
777.393	-14.19
777.617	-15.32
777.841	-15.12
778.065	-13.1
778.289	-14.71
778.512	-15.57
778.736	-15.64
778.96	-15.94
779.184	-14.39
779.407	-16.29
779.631	-16.89
779.855	-17.07
780.078	-15.17
780.302	-17.58
780.526	-20.92
780.749	-20.73
780.973	-20.35
781.196	-19.4
781.42	-21.45
781.643	-21.3
781.867	-19.22
782.09	-22.05
782.314	-21.66
782.537	-22.26
782.76	-23.43
782.984	-22.2
783.207	-22.38
783.431	-23.27
783.654	-25.44
783.877	-27.39
784.1	-26.77
784.324	-28.36
784.547	-28.74
784.77	-33.09
784.993	-33.82
785.216	-34.56
785.44	-34.01
785.663	-34.54
785.886	-31.26
786.109	-32.38
786.332	-30.75
786.555	-28.01
786.778	-26.34
787.001	-25.81
787.224	-23.17
787.447	-21.82
787.67	-19.05
787.893	-17.93
788.116	-18.51
788.339	-15.57
788.561	-16.55
788.784	-21.32
789.007	-20.69
789.23	-22.58
789.453	-21.78
789.675	-22.86
789.898	-25.18
790.121	-26.48
790.344	-26.89
790.566	-25.3
790.789	-25.48
791.012	-25.16
791.234	-21.32
791.457	-16.66
791.679	-14.93
791.902	-14.99
792.124	-13.85
792.347	-15.58
792.569	-16.37
792.792	-19.24
793.014	-16.32
793.237	-15.75
793.459	-17.17
793.681	-16.96
793.904	-17.84
794.126	-20.31
794.348	-20.09
794.571	-19.96
794.793	-22.51
795.015	-20.41
795.237	-21.72
795.46	-19.96
795.682	-18.07
795.904	-15.51
796.126	-17
796.348	-17.59
796.57	-13.82
796.792	-13.57
797.014	-11.32
797.237	-7.82
797.459	-6.17
797.681	-4.13
797.903	-6.42
798.124	-7.07
798.346	3.34
798.568	5.82
798.79	8.52
799.012	8.79
799.234	11.55
799.456	12.14
799.678	14.25
799.899	11.7
800.121	9.35
800.343	10.37
800.565	10.13
800.786	10.45
801.008	12.75
801.23	12.29
801.451	12.57
801.673	11.6
801.895	10.3
802.116	12.14
802.338	12.52
802.559	12.56
802.781	10.83
803.002	13.18
803.224	15.16
803.445	12.72
803.667	13.38
803.888	11.93
804.109	10.4
804.331	10.05
804.552	8.69
804.773	12.14
804.995	8.59
805.216	-6.1
805.437	-8.27
805.658	-10.83
805.88	-12.18
806.101	-11.78
806.322	-10.52
806.543	-11.38
806.764	-13.3
806.985	-12.22
807.207	-12.52
807.428	-10.99
807.649	-14.25
807.87	-16.23
808.091	-15.02
808.312	-14.31
808.533	-8.56
808.754	-7.4
808.975	-8.7
809.195	-5.77
809.416	-4.39
809.637	-5.07
809.858	-5.76
810.079	-6.77
810.3	-4.86
810.52	-5.7
810.741	-8.12
810.962	-9.66
811.183	-10.37
811.403	-10.12
811.624	-10.98
811.845	-8.28
812.065	-5.69
812.286	-5.68
812.506	-5.25
812.727	-4.52
812.948	-4.66
813.168	-2.88
813.389	-3.78
813.609	-2.24
813.83	-2.19
814.05	-3.27
814.27	-3.82
814.491	1.1
814.711	-0.05
814.931	-2.57
815.152	-2.76
815.372	-4.85
815.592	-6.32
815.813	-7.62
816.033	-9.29
816.253	-8.99
816.473	-9.9
816.694	-8.18
816.914	-7.83
817.134	-9.49
817.354	-11.33
817.574	-9.44
817.794	-8.17
818.014	-10.85
818.234	-11.97
818.454	-13.23
818.674	-15.87
818.894	-18.41
819.114	-14.34
819.334	-13.61
819.554	-12.01
819.774	-8.81
819.994	-12.21
820.214	-13.87
820.433	-13.57
820.653	-14.25
820.873	-12.71
821.093	-12.33
821.312	-14.85
821.532	-12.22
821.752	-9.76
821.972	-11.9
822.191	-10.78
822.411	-11.35
822.63	-10.78
822.85	-11.98
823.07	-15.24
823.289	-13.85
823.509	-16.54
823.728	-13.9
823.948	-14.57
824.167	-13.3
824.387	-13.52
824.606	-13.25
824.825	-12.28
825.045	-11.56
825.264	-10.85
825.483	-9.76
825.703	-6.85
825.922	-11.15
826.141	-12.45
826.361	-13.26
826.58	-18.13
826.799	-19.99
827.018	-18.18
827.237	-17.9
827.456	-16.46
827.676	-16.58
827.895	-16.34
828.114	-14.17
828.333	-14.63
828.552	-15.2
828.771	-13.46
828.99	-16.92
829.209	-16.61
829.428	-14.29
829.647	-13.96
829.866	-12.97
830.084	-13.1
830.303	-11.71
830.522	-12.67
830.741	-13.4
830.96	-14.14
831.179	-12.78
831.397	-15.03
831.616	-14.71
831.835	-14.42
832.053	-14.17
832.272	-12.28
832.491	-12.27
832.709	-12.81
832.928	-12.26
833.147	-12.27
833.365	-10.09
833.584	-5.73
833.802	-2.75
834.021	-2.71
834.239	-2.66
834.458	-4.48
834.676	-8.31
834.894	-9.56
835.113	-11.91
835.331	-11.59
835.55	-12.86
835.768	-11.14
835.986	-10.18
836.204	-12.31
836.423	-11.88
836.641	-12.21
836.859	-14.16
837.077	-13.3
837.296	-13.69
837.514	-12.64
837.732	-12.85
837.95	-15.34
838.168	-11.81
838.386	-12.5
838.604	-10.07
838.822	-10.38
839.04	-12.38
839.258	-12.95
839.476	-9.76
839.694	-10.07
839.912	-11.73
840.13	-12.56
840.348	-10.04
840.566	-14.12
840.783	-12.59
841.001	-13.7
841.219	-11.98
841.437	-11.93
841.655	-12.06
841.872	-10.43
842.09	-11.28
842.308	-9.94
842.525	-10.29
842.743	-9.55
842.961	-11.03
843.178	-13.77
843.396	-9.82
843.613	-8.69
843.831	-8.74
844.048	-9.17
844.266	-9.01
844.483	-9.93
844.701	-10.23
844.918	-10.37
845.136	-11.4
845.353	-13.59
845.57	-12.23
845.788	-9.04
846.005	-10.85
846.222	-13.19
846.439	-11.89
846.657	-10.21
846.874	-10.34
847.091	-13.31
847.308	-11.7
847.526	-12.23
847.743	-12.47
847.96	-14.45
848.177	-13.53
848.394	-14.17
848.611	-15.57
848.828	-16.8
849.045	-19.04
849.262	-18.9
849.479	-18.61
849.696	-19.44
849.913	-19.96
850.13	-25.24
850.347	-22.01
850.564	-23.81
850.78	-25.43
850.997	-28.52
851.214	-27.13
851.431	-25.43
851.647	-29.41
851.864	-28.44
852.081	-26.46
852.298	-29.49
852.514	-31.67
852.731	-30.83
852.948	-28.97
853.164	-28.05
853.381	-28.48
853.597	-29.43
853.814	-31.68
854.03	-33.63
854.247	-31.22
854.463	-30.58
854.68	-30.58
854.896	-30.12
855.113	-28.46
855.329	-27.03
855.545	-23.34
855.762	-23.45
855.978	-27.21
856.194	-30.41
856.411	-26.01
856.627	-23.85
856.843	-22.25
857.059	-18.99
857.275	-19.38
857.492	-18.19
857.708	-13.39
857.924	-11.9
858.14	-10.27
858.356	-10.18
858.572	-10.87
858.788	-13.66
859.004	-12
859.22	-13.38
859.436	-12.96
859.652	-14.59
859.868	-16.93
860.084	-16.9
860.3	-16.39
860.516	-16.12
860.731	-16.74
860.947	-22.43
861.163	-21.92
861.379	-21.28
861.595	-20.15
861.81	-19.98
862.026	-19.58
862.242	-20.94
862.457	-20.65
862.673	-17.21
862.889	-16.09
863.104	-16.81
863.32	-16.3
863.535	-15.57
863.751	-21.17
863.966	-18.89
864.182	-16.38
864.397	-18
864.613	-20.39
864.828	-21.72
865.044	-19.85
865.259	-16.61
865.474	-16.67
865.69	-14.89
865.905	-13.61
866.12	-14.79
866.336	-14.71
866.551	-13.62
866.766	-14.93
866.981	-16.36
867.196	-15.87
867.412	-15.48
867.627	-13.29
867.842	-14.42
868.057	-13.37
868.272	-13.1
868.487	-14.38
868.702	-17
868.917	-18.12
869.132	-16.04
869.347	-15.7
869.562	-16.11
869.777	-17.04
869.992	-16.79
870.207	-17.33
870.422	-17.48
870.636	-19.27
870.851	-22.68
871.066	-24.87
871.281	-24.95
871.495	-26.08
871.71	-23.55
871.925	-27.12
872.14	-27.36
872.354	-30.44
872.569	-31.11
872.783	-29.17
872.998	-29.49
873.213	-29.93
873.427	-25.62
873.642	-24.87
873.856	-25.15
874.071	-24.13
874.285	-25.02
874.5	-25.64
874.714	-27.6
874.928	-29.05
875.143	-29.02
875.357	-28.93
875.571	-29.92
875.786	-30.08
876	-27.26
876.214	-26.72
876.429	-28.44
876.643	-28.65
876.857	-26.35
877.071	-25.33
877.285	-26.3
877.499	-27.9
877.714	-25.07
877.928	-22.85
878.142	-25.01
878.356	-28.07
878.57	-26.28
878.784	-25.3
878.998	-25.3
879.212	-23.63
879.426	-25.31
879.639	-22.35
879.853	-23.5
880.067	-23.97
880.281	-24.7
880.495	-22.38
880.709	-20.94
880.922	-20.28
881.136	-17.25
881.35	-15.61
881.564	-16.05
881.777	-18.86
881.991	-16.96
882.205	-14.22
882.418	-14.58
882.632	-17.79
882.845	-17.07
883.059	-16.69
883.273	-17.66
883.486	-20.49
883.7	-19.4
883.913	-18.8
884.126	-17.25
884.34	-20.27
884.553	-21.54
884.767	-17.17
884.98	-16.69
885.193	-17.5
885.407	-18.42
885.62	-16.18
885.833	-16.26
886.046	-14.97
886.26	-17.38
886.473	-17.4
886.686	-19.56
886.899	-17.4
887.112	-19.25
887.326	-21.58
887.539	-20.48
887.752	-21
887.965	-23.19
888.178	-21.65
888.391	-20.23
888.604	-19.74
888.817	-20.95
889.03	-19.67
889.243	-21.45
889.455	-24.7
889.668	-23.29
889.881	-20.37
890.094	-20.68
890.307	-22.12
890.52	-19.23
890.732	-18.9
890.945	-19.32
891.158	-18.52
891.37	-19.98
891.583	-19.41
891.796	-18.6
892.008	-19.94
892.221	-21.06
892.434	-24.55
892.646	-25.61
892.859	-26.97
893.071	-26.04
893.284	-25.13
893.496	-25.25
893.709	-24.31
893.921	-22.23
894.133	-23.02
894.346	-24.05
894.558	-24.92
894.771	-25.6
894.983	-23.76
895.195	-23.68
895.407	-22.77
895.62	-26.6
895.832	-25.24
896.044	-21.62
896.256	-21.95
896.468	-24.11
896.681	-21.01
896.893	-21.11
897.105	-22.6
897.317	-21.57
897.529	-18.76
897.741	-19.03
897.953	-16.75
898.165	-19.25
898.377	-20.94
898.589	-18.71
898.801	-19.74
899.013	-16.84
899.224	-14.19
899.436	-10.68
899.648	-11.76
899.86	-13.42
900.072	-10.29
900.283	-10.67
900.495	-9.64
900.707	-9.21
900.919	-10.8
901.13	-6.94
901.342	-7.76
901.554	-8.37
901.765	-8.04
901.977	-9.84
902.188	-10.2
902.4	-10.41
902.611	-13.05
902.823	-15.02
903.034	-17.61
903.246	-20.99
903.457	-19.97
903.669	-21.02
903.88	-22.2
904.091	-22.75
904.303	-21.91
904.514	-23.98
904.725	-22.13
904.936	-21.12
905.148	-21.56
905.359	-18.94
905.57	-19.62
905.781	-22.26
905.992	-23.12
906.204	-21.57
906.415	-20.67
906.626	-25.05
906.837	-22.72
907.048	-24.09
907.259	-25.66
907.47	-27.24
907.681	-28.93
907.892	-26.73
908.103	-27.89
908.314	-30.65
908.525	-28.68
908.735	-27.65
908.946	-28.91
909.157	-28.96
909.368	-26.14
909.579	-23.3
909.789	-23.67
910	-26.13
910.211	-24.67
910.421	-25.43
910.632	-24.53
910.843	-27.05
911.053	-23.95
911.264	-20.54
911.475	-21.01
911.685	-20
911.896	-19.46
912.106	-18.48
912.317	-19.44
912.527	-17.79
912.737	-19.13
912.948	-19.16
913.158	-17.62
913.369	-20.65
913.579	-18.35
913.789	-17.43
914	-14.42
914.21	-14.22
914.42	-15.95
914.63	-16.46
914.841	-13.88
915.051	-13.01
915.261	-11.56
915.471	-8.44
915.681	-6.86
915.891	-6.99
916.101	-9.05
916.311	-8.68
916.521	-8.23
916.731	-6.59
916.941	-3.93
917.151	-5.12
917.361	-2.41
917.571	-7.62
917.781	-10.42
917.991	-12.58
918.201	-12.71
918.411	-17.55
918.621	-18.03
918.83	-16.03
919.04	-17.7
919.25	-15.61
919.46	-13.39
919.669	-16.99
919.879	-15.28
920.089	-17.43
920.298	-17.59
920.508	-16.95
920.717	-16.49
920.927	-16.02
921.136	-14.55
921.346	-16.64
921.555	-19.08
921.765	-19.6
921.974	-21.72
922.184	-25.16
922.393	-25.75
922.603	-25.83
922.812	-22.6
923.021	-23.19
923.23	-25.45
923.44	-28.77
923.649	-28.8
923.858	-29.84
924.067	-28.88
924.277	-29.86
924.486	-27.14
924.695	-28.2
924.904	-24.67
925.113	-25.28
925.322	-24.58
925.531	-25.71
925.74	-27.36
925.949	-29.7
926.158	-26.71
926.367	-28.43
926.576	-27.77
926.785	-29.86
926.994	-31.12
927.203	-29.58
927.412	-30.52
927.621	-31.25
927.83	-29.56
928.038	-30.22
928.247	-30.32
928.456	-29.6
928.665	-27.06
928.873	-25.83
929.082	-23
929.291	-22.51
929.499	-20.34
929.708	-21.47
929.916	-20.25
930.125	-20.23
930.333	-21.55
930.542	-18.58
930.75	-16.29
930.959	-15.37
931.167	-15.36
931.376	-16.65
931.584	-14.73
931.793	-14.64
932.001	-13.83
932.209	-14.49
932.418	-16.02
932.626	-17.5
932.834	-18.24
933.042	-21.96
933.251	-20.37
933.459	-19.58
933.667	-22.37
933.875	-22.85
934.083	-22
934.291	-20.1
934.499	-19.46
934.707	-19.57
934.915	-21.3
935.123	-18.62
935.331	-19.73
935.539	-23.44
935.747	-26.13
935.955	-27.29
936.163	-25.85
936.371	-24.71
936.579	-23.54
936.787	-22.64
936.995	-23.89
937.202	-26.07
937.41	-26.89
937.618	-27.95
937.826	-27.17
938.033	-32.19
938.241	-34.14
938.449	-31.76
938.656	-30.86
938.864	-30.09
939.071	-29.48
939.279	-26.42
939.486	-24.28
939.694	-25.25
939.901	-28.22
940.109	-26.8
940.316	-26.86
940.524	-27.63
940.731	-30.94
940.939	-28.8
941.146	-28.91
941.353	-28.76
941.561	-30.5
941.768	-31.69
941.975	-29.44
942.182	-29.83
942.39	-30.16
942.597	-28.24
942.804	-28.95
943.011	-29.77
943.218	-28.88
943.425	-29.35
943.632	-29
943.839	-29.88
944.046	-29.78
944.253	-29.05
944.46	-27.8
944.667	-23.81
944.874	-25.12
945.081	-23.24
945.288	-22.97
945.495	-21.36
945.702	-21.51
945.909	-22.3
946.115	-20.82
946.322	-19.91
946.529	-21.49
946.736	-19.65
946.942	-17.39
947.149	-16.52
947.356	-17.99
947.562	-19.02
947.769	-18.93
947.976	-19.79
948.182	-17.56
948.389	-18.35
948.595	-16.86
948.802	-16.23
949.008	-17.51
949.215	-16.46
949.421	-17.33
949.628	-18.43
949.834	-18.63
950.04	-18.28
950.247	-13.79
950.453	-12.84
950.659	-15.32
950.865	-13.43
951.072	-18.56
951.278	-16.62
951.484	-17.52
951.69	-19.21
951.896	-20.33
952.103	-22.24
952.309	-21.01
952.515	-21.23
952.721	-19.33
952.927	-17.09
953.133	-19.02
953.339	-20.69
953.545	-20.73
953.751	-19.94
953.957	-16.98
954.163	-18.65
954.369	-17.38
954.574	-18.62
954.78	-19.1
954.986	-18.82
955.192	-16.22
955.398	-17.62
955.603	-20.63
955.809	-18.32
956.015	-17.99
956.22	-16.75
956.426	-15.52
956.632	-20.06
956.837	-19.97
957.043	-18.67
957.248	-16.91
957.454	-16.22
957.66	-18.55
957.865	-20.52
958.07	-19.08
958.276	-19.25
958.481	-20.41
958.687	-20.94
958.892	-20.46
959.097	-20.31
959.303	-21.42
959.508	-21.72
959.713	-22.38
959.919	-23.58
960.124	-24.66
960.329	-25.51
960.534	-20.41
960.739	-20.42
960.945	-18.75
961.15	-18.72
961.355	-20.09
961.56	-23.92
961.765	-25.23
961.97	-24.63
962.175	-23.85
962.38	-26.91
962.585	-26.87
962.79	-31.29
962.995	-30.5
963.2	-31.32
963.404	-31.44
963.609	-35.17
963.814	-35.82
964.019	-38.5
964.224	-39.13
964.428	-37.62
964.633	-37.72
964.838	-35.38
965.042	-35.55
965.247	-37.37
965.452	-38.71
965.656	-36.35
965.861	-34.83
966.066	-34.97
966.27	-32.07
966.475	-28.14
966.679	-31.93
966.884	-33
967.088	-35.3
967.292	-35.93
967.497	-33.84
967.701	-34.34
967.906	-32.93
968.11	-29.27
968.314	-25.86
968.518	-27.67
968.723	-24.75
968.927	-24.09
969.131	-21.1
969.335	-18.87
969.539	-18.65
969.744	-16.12
969.948	-13.11
970.152	-11.84
970.356	-9.77
970.56	-10.49
970.764	-12.76
970.968	-9.23
971.172	-9.31
971.376	-9.41
971.58	-8.56
971.784	-7.44
971.988	-9.8
972.192	-6.62
972.395	-8.02
972.599	-10.93
972.803	-13.29
973.007	-11.03
973.21	-10.76
973.414	-10.73
973.618	-10.44
973.822	-11.95
974.025	-11.18
974.229	-11.06
974.432	-14.04
974.636	-15.77
974.84	-14.54
975.043	-14.21
975.247	-15.87
975.45	-16.7
975.654	-16.52
975.857	-14.52
976.06	-16.82
976.264	-19.24
976.467	-16.88
976.671	-17.62
976.874	-15.19
977.077	-15.41
977.28	-16.72
977.484	-19.07
977.687	-18.07
977.89	-14.68
978.093	-14.19
978.297	-12.5
978.5	-16.26
978.703	-13.86
978.906	-13.31
979.109	-13.78
979.312	-12.45
979.515	-14.04
979.718	-13.38
979.921	-14.24
980.124	-15.09
980.327	-16.62
980.53	-18.27
980.733	-16.96
980.936	-14.71
981.138	-17.05
981.341	-16.22
981.544	-16.13
981.747	-17.38
981.949	-18.95
982.152	-18.75
982.355	-19.32
982.558	-15.48
982.76	-18.73
982.963	-18.18
983.165	-18.2
983.368	-17.38
983.571	-18.45
983.773	-15.27
983.976	-14.64
984.178	-16.41
984.381	-18.33
984.583	-22.57
984.785	-23.12
984.988	-20.95
985.19	-19.4
985.392	-21.26
985.595	-25.09
985.797	-23.72
985.999	-21.47
986.202	-19.29
986.404	-19.65
986.606	-15.92
986.808	-15.77
987.01	-14.24
987.212	-14.9
987.415	-16.3
987.617	-17.41
987.819	-19.62
988.021	-16.97
988.223	-18.29
988.425	-19.53
988.627	-19.03
988.829	-24.19
989.031	-22.95
989.232	-24.31
989.434	-22.63
989.636	-23.08
989.838	-23.56
990.04	-22.81
990.242	-25.79
990.443	-26.87
990.645	-23.88
990.847	-19.82
991.048	-19.24
991.25	-21.35
991.452	-22.31
991.653	-22.6
991.855	-21.6
992.057	-23.87
992.258	-24.27
992.46	-26.05
992.661	-25.23
992.863	-26.4
993.064	-23.92
993.265	-26.01
993.467	-28.57
993.668	-24.76
993.87	-23.42
994.071	-21.03
994.272	-21.47
994.473	-19.34
994.675	-19.66
994.876	-20.18
995.077	-18.52
995.278	-17.69
995.48	-17.47
995.681	-19.19
995.882	-16.9
996.083	-17.34
996.284	-20.95
996.485	-18.85
996.686	-20.65
996.887	-21.52
997.088	-26.07
997.289	-28.32
997.49	-28.59
997.691	-28
997.892	-27.25
998.092	-21.28
998.293	-21.66
998.494	-21.36
998.695	-22.46
998.896	-20.79
999.096	-22
999.297	-23.51
999.498	-25.19
999.698	-26.65
999.899	-30.05
1000.1	-31.67
1000.3	-32.08
1000.501	-33.5
1000.701	-33.96
1000.902	-32.56
1001.102	-31.75
1001.303	-30.52
1001.503	-32.74
1001.704	-31.72
1001.904	-32.77
1002.105	-33.39
1002.305	-32.29
1002.505	-33.6
1002.706	-34.75
1002.906	-34.68
1003.106	-36.38
1003.306	-33.45
1003.507	-30.08
1003.707	-31.01
1003.907	-29.06
1004.107	-28.68
1004.307	-31.54
1004.507	-28.53
1004.707	-29.46
1004.907	-29.97
1005.107	-31.42
1005.308	-29.96
1005.507	-31.69
1005.707	-28.92
1005.907	-28.98
1006.107	-25.14
1006.307	-25.78
1006.507	-26.17
1006.707	-23.94
1006.907	-22.28
1007.106	-24.13
1007.306	-24.95
1007.506	-24.32
1007.706	-23.5
1007.905	-25.97
1008.105	-26.01
1008.305	-27.42
1008.504	-27.06
1008.704	-21.46
1008.903	-21.42
1009.103	-19.04
1009.303	-20.49
1009.502	-21.01
1009.702	-22.31
1009.901	-21.29
1010.1	-25.35
1010.3	-22.6
1010.499	-25.47
1010.699	-27.07
1010.898	-28.86
1011.097	-28.01
1011.296	-26.86
1011.496	-29.03
1011.695	-28.48
1011.894	-30.51
1012.093	-26.59
1012.293	-27.75
1012.492	-27.3
1012.691	-27.05
1012.89	-27.97
1013.089	-32.83
1013.288	-30.31
1013.487	-29.09
1013.686	-29.89
1013.885	-31.84
1014.084	-29.54
1014.283	-29.67
1014.482	-29.78
1014.681	-30.79
1014.88	-34.68
1015.078	-32.36
1015.277	-34.4
1015.476	-35.74
1015.675	-36.49
1015.873	-35.63
1016.072	-36.92
1016.271	-31.96
1016.47	-36
1016.668	-32.49
1016.867	-33.53
1017.065	-34.86
1017.264	-36.17
1017.463	-37.64
1017.661	-37.54
1017.86	-36.78
1018.058	-34.55
1018.256	-36.98
1018.455	-39.08
1018.653	-37.69
1018.852	-37.74
1019.05	-40.33
1019.248	-41.05
1019.447	-42.38
1019.645	-42.62
1019.843	-44.1
1020.041	-42.3
1020.24	-43.53
1020.438	-39.46
1020.636	-40
1020.834	-41.42
1021.032	-39.34
1021.23	-41.03
1021.428	-39.04
1021.626	-33.41
1021.824	-32.3
1022.022	-32.62
1022.22	-31.16
1022.418	-32.3
1022.616	-33.48
1022.814	-34.88
1023.012	-34.36
1023.21	-30.67
1023.408	-30.56
1023.606	-30.29
1023.803	-23.94
1024.001	-23.3
1024.199	-26.11
1024.397	-25.08
1024.594	-23.84
1024.792	-26.9
1024.99	-25.78
1025.187	-24.74
1025.385	-19.4
1025.582	-19.38
1025.78	-20.11
1025.977	-18.91
1026.175	-19.03
1026.372	-18.01
1026.57	-20.35
1026.767	-17.67
1026.965	-17.2
1027.162	-16.93
1027.359	-17.94
1027.557	-18.26
1027.754	-22.4
1027.951	-23.17
1028.148	-21.51
1028.346	-23.56
1028.543	-25.42
1028.74	-25.22
1028.937	-28.16
1029.134	-29.35
1029.331	-30.57
1029.528	-29.46
1029.725	-29.97
1029.923	-35.57
1030.12	-33.25
1030.317	-32.25
1030.513	-30.15
1030.71	-28.8
1030.907	-26.55
1031.104	-26.95
1031.301	-27.49
1031.498	-28.8
1031.695	-29.84
1031.892	-28.94
1032.088	-29.38
1032.285	-30.82
1032.482	-32.46
1032.678	-36.33
1032.875	-38.57
1033.072	-37.31
1033.268	-38.94
1033.465	-38.32
1033.662	-40.42
1033.858	-40.33
1034.055	-40.13
1034.251	-38.44
1034.448	-37.37
1034.644	-37.33
1034.84	-33.25
1035.037	-30.83
1035.233	-30.41
1035.43	-28.95
1035.626	-30.07
1035.822	-30.08
1036.019	-30.43
1036.215	-33.8
1036.411	-33.91
1036.607	-36.84
1036.803	-40.38
1037	-39.42
1037.196	-41.87
1037.392	-42.37
1037.588	-43.93
1037.784	-42.52
1037.98	-44.86
1038.176	-44.63
1038.372	-45.25
1038.568	-43.8
1038.764	-40.23
1038.96	-36.87
1039.156	-38.75
1039.352	-38.35
1039.547	-36.97
1039.743	-36.04
1039.939	-32.41
1040.135	-33.07
1040.331	-36.51
1040.526	-34.82
1040.722	-35.03
1040.918	-37.38
1041.113	-40.38
1041.309	-40.33
1041.505	-43.95
1041.7	-43.94
1041.896	-44.5
1042.091	-45.36
1042.287	-45.84
1042.482	-45.44
1042.678	-45.47
1042.873	-44.02
1043.069	-46.13
1043.264	-44.58
1043.459	-43.13
1043.655	-42.69
1043.85	-44.33
1044.045	-42.16
1044.24	-42.43
1044.436	-39.51
1044.631	-39.98
1044.826	-41.77
1045.021	-47.13
1045.216	-46.25
