Data from FLMT021711__24__17-57-40-851.txt Node

Date: Tue Nov 05 17:57:40 CET 2024
User: Etudiants TP
Spectrometer: FLMT02171
Trigger mode: 0
Integration Time (sec): 1.000000E-1
Scans to average: 5
Electric dark correction enabled: true
Nonlinearity correction enabled: false
Boxcar width: 15
XAxis mode: Wavelengths
Number of Pixels in Spectrum: 3648
>>>>>Begin Spectral Data<<<<<
194.658	-62.56
194.923	-61.25
195.188	-54.92
195.453	-55.44
195.717	-49.54
195.982	-48.1
196.247	-46.53
196.512	-48.94
196.777	-46.66
197.042	-44.29
197.307	-43.4
197.572	-39.23
197.837	-38.92
198.101	-36.7
198.366	-33.67
198.631	-32.7
198.896	-26.32
199.161	-19.78
199.425	-12.8
199.69	-1.98
199.955	-2.62
200.22	-5.57
200.484	-7.84
200.749	-9.13
201.014	-7.65
201.278	-6.88
201.543	-7.91
201.807	-8.82
202.072	-6.33
202.337	-7.19
202.601	-8.14
202.866	-7.83
203.13	-5.99
203.395	-7.97
203.659	-5.75
203.924	-7.89
204.189	-7.43
204.453	-5.92
204.717	-3.6
204.982	-3.16
205.246	-2.16
205.511	-1.44
205.775	-1.98
206.04	3.04
206.304	3.5
206.568	5.61
206.833	6.72
207.097	8.4
207.361	10.32
207.626	14.42
207.89	14.29
208.154	13.91
208.419	15.5
208.683	17.75
208.947	21.38
209.211	20.24
209.476	18.91
209.74	19.39
210.004	19.53
210.268	19.27
210.532	22.73
210.796	23.34
211.061	22.72
211.325	23.88
211.589	22.58
211.853	21.95
212.117	21.53
212.381	21.91
212.645	21.14
212.909	21.17
213.173	19.82
213.437	20.69
213.701	21.92
213.965	22.11
214.229	17.25
214.493	16.56
214.757	14.3
215.021	14.13
215.285	17.73
215.549	20.34
215.813	17.46
216.077	16.69
216.34	19.83
216.604	20.19
216.868	19.29
217.132	18.89
217.396	20.42
217.659	21.31
217.923	18.67
218.187	18.59
218.451	19.02
218.714	16.11
218.978	17.21
219.242	20.36
219.505	19.83
219.769	21.95
220.033	23.06
220.296	25.86
220.56	27.36
220.824	26.72
221.087	26.98
221.351	25.95
221.614	24.8
221.878	26.45
222.142	25.9
222.405	26.59
222.669	29.17
222.932	25.92
223.196	24.57
223.459	20.28
223.722	21.45
223.986	20.39
224.249	19.92
224.513	20.11
224.776	19.73
225.04	19.72
225.303	19.6
225.566	18.59
225.83	20.88
226.093	24.61
226.356	22.76
226.62	21.29
226.883	23.45
227.146	22.4
227.409	21.22
227.673	19.81
227.936	18.75
228.199	18.08
228.462	15.14
228.725	13.14
228.989	11.22
229.252	13.22
229.515	20.35
229.778	18.8
230.041	17.08
230.304	15.25
230.567	16.79
230.83	15.25
231.093	18.45
231.356	18.36
231.619	24.92
231.882	22.4
232.145	25.42
232.408	24.3
232.671	22.42
232.934	21.9
233.197	19.55
233.46	18.21
233.723	18.63
233.986	16
234.249	13.09
234.512	16.37
234.775	20.7
235.037	19.56
235.3	20.87
235.563	20.27
235.826	20.87
236.089	23.59
236.351	23.46
236.614	26.27
236.877	27.16
237.14	30.9
237.402	30.17
237.665	21.57
237.928	21.86
238.19	19.54
238.453	21.02
238.716	19.49
238.978	19.91
239.241	17.06
239.503	19.56
239.766	15.18
240.029	13.72
240.291	15.16
240.554	15.16
240.816	15.86
241.079	15.38
241.341	15.91
241.604	14.8
241.866	11.52
242.129	12.01
242.391	14.15
242.653	12.67
242.916	11.89
243.178	12.32
243.441	12.56
243.703	12.59
243.965	12.1
244.228	10.73
244.49	11.03
244.752	11.96
245.015	12.87
245.277	14.41
245.539	12.92
245.801	14.99
246.064	13.63
246.326	13.05
246.588	12.07
246.85	14.07
247.112	13.12
247.374	15.68
247.637	17.78
247.899	16.22
248.161	17.18
248.423	12.74
248.685	13.59
248.947	12.9
249.209	13.8
249.471	15.84
249.733	17.09
249.995	17.34
250.257	16.99
250.519	15.71
250.781	19.02
251.043	16.87
251.305	18.61
251.567	19.56
251.829	20.65
252.091	19.98
252.353	17.38
252.615	17.46
252.876	14.3
253.138	12.73
253.4	8.87
253.662	9.59
253.924	12.16
254.185	13.89
254.447	14.38
254.709	16.37
254.971	17.1
255.232	20.28
255.494	19.24
255.756	15.87
256.017	16.67
256.279	17.31
256.541	18.17
256.802	18.68
257.064	18.8
257.326	17.4
257.587	17.94
257.849	18.95
258.11	21.57
258.372	22.74
258.633	23.55
258.895	20.67
259.156	18.47
259.418	16.49
259.679	13.12
259.941	10.47
260.202	12.39
260.464	14.89
260.725	12.67
260.987	13.91
261.248	12.35
261.509	13.63
261.771	13.9
262.032	15.17
262.293	14.99
262.555	15.1
262.816	12.04
263.077	9.75
263.338	6.41
263.6	6.16
263.861	5.82
264.122	5.52
264.383	6.84
264.645	7.58
264.906	5.62
265.167	7.03
265.428	8.38
265.689	8.81
265.95	6.48
266.211	8.14
266.473	8.03
266.734	5.05
266.995	2.21
267.256	4.65
267.517	6.93
267.778	10.3
268.039	11.92
268.3	11.15
268.561	7.79
268.822	11.59
269.083	8.66
269.344	8.58
269.604	7.14
269.865	7.14
270.126	2.53
270.387	4.15
270.648	5.62
270.909	5.82
271.17	5.48
271.43	2.53
271.691	0.96
271.952	0.3
272.213	2.23
272.473	-1.02
272.734	-0.39
272.995	1.93
273.256	1.6
273.516	3.24
273.777	1.07
274.038	3.24
274.298	0.22
274.559	0.23
274.82	5.34
275.08	9.18
275.341	10.52
275.601	8.04
275.862	5.91
276.122	6.15
276.383	6.36
276.643	9.06
276.904	7.56
277.164	10.76
277.425	10.38
277.685	14.05
277.946	13.65
278.206	16.35
278.467	17.91
278.727	18.39
278.987	18.19
279.248	17.39
279.508	20.2
279.768	21.82
280.029	22.89
280.289	19.12
280.549	18.65
280.81	17.53
281.07	16.37
281.33	18.56
281.59	16.8
281.851	18.85
282.111	18.13
282.371	17.69
282.631	18.37
282.891	15.62
283.151	13.4
283.412	9.8
283.672	9.73
283.932	10.06
284.192	11.78
284.452	9.4
284.712	7.2
284.972	6.92
285.232	4.27
285.492	6.23
285.752	3.03
286.012	9.8
286.272	10.07
286.532	6.44
286.792	5.37
287.052	7.22
287.312	8.52
287.571	5.8
287.831	7.42
288.091	5.6
288.351	6.6
288.611	11.54
288.871	12.41
289.13	13.53
289.39	9.76
289.65	11.92
289.91	8.95
290.17	11.28
290.429	13.46
290.689	10.89
290.949	9.72
291.208	11.47
291.468	15.57
291.728	17.67
291.987	19.74
292.247	16.35
292.506	20.17
292.766	23.37
293.026	21.65
293.285	23.33
293.545	27.08
293.804	27.92
294.064	23.11
294.323	21.04
294.583	22.6
294.842	23.17
295.102	23.59
295.361	24.02
295.621	26.35
295.88	26.97
296.139	26.04
296.399	27.17
296.658	21.54
296.917	21.4
297.177	15.94
297.436	16.21
297.695	13.7
297.955	16.57
298.214	14.42
298.473	16.1
298.732	19.92
298.992	22.09
299.251	21.99
299.51	18.35
299.769	18.5
300.028	17.96
300.287	19.73
300.547	18.93
300.806	15.78
301.065	19.11
301.324	20.31
301.583	15.71
301.842	12.45
302.101	11.5
302.36	12.71
302.619	11.99
302.878	13.52
303.137	10.92
303.396	11.87
303.655	11.99
303.914	8.44
304.173	9.48
304.432	7.4
304.691	10.86
304.95	8.7
305.208	15.06
305.467	16.2
305.726	15.54
305.985	16.02
306.244	17.04
306.503	16.3
306.761	13.29
307.02	9.7
307.279	11.4
307.537	12.24
307.796	9.03
308.055	6.12
308.314	6.34
308.572	4.05
308.831	6.64
309.09	7.45
309.348	9.08
309.607	8.74
309.865	12.43
310.124	11.88
310.382	13.03
310.641	13.04
310.9	10.87
311.158	12.19
311.417	10.98
311.675	12.23
311.933	13.12
312.192	15.1
312.45	16.71
312.709	16.47
312.967	16.23
313.226	15.06
313.484	15.09
313.742	13.09
314.001	11.39
314.259	10.72
314.517	11.02
314.776	12.17
315.034	15.51
315.292	11.36
315.55	9.8
315.809	10.28
316.067	11.64
316.325	10.5
316.583	11.91
316.841	10.25
317.1	7.96
317.358	3.62
317.616	3.87
317.874	2.33
318.132	2.03
318.39	2.42
318.648	1.99
318.906	0.99
319.164	0.65
319.422	0.56
319.68	-1.63
319.938	-1.81
320.196	-1.8
320.454	-1.69
320.712	-2.07
320.97	-1.72
321.228	-3.6
321.486	-2.36
321.744	0.64
322.002	2.78
322.26	1.26
322.517	0.71
322.775	-0.18
323.033	-2.91
323.291	0.68
323.549	2.85
323.806	4.52
324.064	3.87
324.322	5.29
324.58	4.36
324.837	6.88
325.095	4.98
325.353	8.62
325.61	9.98
325.868	10.8
326.126	12.16
326.383	11.23
326.641	10.17
326.898	11.59
327.156	11.93
327.413	12.36
327.671	13.98
327.928	16.63
328.186	15.93
328.443	15.29
328.701	19.47
328.958	20.96
329.216	21.97
329.473	19.63
329.731	20.48
329.988	18.98
330.245	21.86
330.503	22.51
330.76	21.29
331.017	24.64
331.275	21.58
331.532	19.83
331.789	16.44
332.047	16.75
332.304	13.71
332.561	13.62
332.818	10.56
333.076	13.37
333.333	13.81
333.59	14.79
333.847	16.12
334.104	16.18
334.361	14.83
334.618	16.07
334.876	13.66
335.133	12.87
335.39	10.06
335.647	10.07
335.904	7
336.161	4.68
336.418	4.95
336.675	-0.68
336.932	0.72
337.189	0.28
337.446	0.62
337.703	-1.33
337.96	-4.81
338.216	-5.17
338.473	-8.32
338.73	-7.67
338.987	-8.41
339.244	-5.4
339.501	-5.92
339.757	-3.2
340.014	-1.84
340.271	-0.23
340.528	0.7
340.785	5.51
341.041	4.3
341.298	0.25
341.555	-0.92
341.811	-1.39
342.068	-4.21
342.325	-3.77
342.581	-2.81
342.838	0.14
343.094	0.35
343.351	0.91
343.608	-2.04
343.864	0.25
344.121	1.58
344.377	1.91
344.634	1.63
344.89	-0.14
345.147	0.14
345.403	0.02
345.66	-1.17
345.916	1.5
346.172	0.35
346.429	1.21
346.685	0.9
346.942	0.65
347.198	-2.92
347.454	-1.64
347.711	-2.47
347.967	-5.98
348.223	-6.12
348.48	-6.6
348.736	-3.26
348.992	-3.45
349.248	-0.74
349.504	-1.37
349.761	-1.87
350.017	-1.42
350.273	-1.09
350.529	-2.74
350.785	-3.92
351.041	-5.14
351.297	-2.82
351.554	-2.9
351.81	-5.65
352.066	-5.3
352.322	-6.44
352.578	-5.6
352.834	-6.1
353.09	-6.21
353.346	-6.18
353.602	-6.47
353.858	-8.6
354.114	-10.63
354.369	-10.48
354.625	-8.26
354.881	-10.12
355.137	-7.23
355.393	-6.7
355.649	-5.55
355.905	-4.38
356.16	-3.88
356.416	-2.14
356.672	-9.28
356.928	-9.77
357.183	-10.23
357.439	-8.98
357.695	-10.72
357.951	-6.12
358.206	-6.75
358.462	-5.58
358.718	-7.18
358.973	-5.13
359.229	-5.49
359.484	-4.88
359.74	-1.35
359.996	-2.51
360.251	2.17
360.507	1.37
360.762	0.66
361.018	2.31
361.273	-0.57
361.529	1.38
361.784	2.27
362.04	5.3
362.295	5.24
362.55	5.47
362.806	8.92
363.061	8.56
363.316	8.98
363.572	9.24
363.827	11.16
364.082	8.05
364.338	6.53
364.593	7.72
364.848	9.93
365.104	7.2
365.359	8.87
365.614	9.67
365.869	5.64
366.124	6.24
366.38	4.56
366.635	6.76
366.89	8.9
367.145	8.45
367.4	12.77
367.655	12.16
367.91	13.88
368.165	10.6
368.42	8.62
368.675	9.98
368.93	10.36
369.185	8.23
369.44	8.3
369.695	11.65
369.95	9.27
370.205	8.57
370.46	6.83
370.715	5.18
370.97	6.12
371.225	6.05
371.48	7.71
371.734	8.21
371.989	10.9
372.244	9.6
372.499	10.1
372.754	9.23
373.008	7.97
373.263	3.75
373.518	6.76
373.773	6.22
374.027	4.04
374.282	6.03
374.537	6.23
374.791	6.65
375.046	5.61
375.301	3.69
375.555	0.92
375.81	2.08
376.064	2.31
376.319	4.7
376.573	4.49
376.828	0.91
377.082	6.51
377.337	3.2
377.591	-0.4
377.846	0.89
378.1	4.17
378.355	4.82
378.609	4.61
378.863	1.55
379.118	2.49
379.372	0.35
379.627	-2.96
379.881	-5.42
380.135	-3.84
380.389	-3.82
380.644	-3.66
380.898	-0.83
381.152	1.04
381.407	-0.48
381.661	2.01
381.915	3.55
382.169	4.01
382.423	3.33
382.677	-0.3
382.932	1.92
383.186	3.17
383.44	5.05
383.694	6.79
383.948	5.55
384.202	6.48
384.456	7.42
384.71	9.61
384.964	9.44
385.218	12.85
385.472	13.63
385.726	13.48
385.98	11.95
386.234	11.15
386.488	7.6
386.742	9.26
386.996	6.46
387.249	7.7
387.503	12.01
387.757	13.31
388.011	14.49
388.265	14.62
388.518	14.79
388.772	15.28
389.026	16.57
389.28	14.84
389.533	12.64
389.787	15.68
390.041	13.46
390.295	12.64
390.548	12.9
390.802	14.34
391.055	12.66
391.309	11.98
391.563	9.21
391.816	9.78
392.07	6.79
392.323	7.79
392.577	8.29
392.83	8.49
393.084	13.54
393.337	16.61
393.591	17.76
393.844	18.78
394.098	23.15
394.351	27.2
394.604	28.84
394.858	31.85
395.111	31.34
395.364	28.81
395.618	29.57
395.871	27.08
396.124	25.95
396.378	24.62
396.631	24.16
396.884	20.6
397.137	20.32
397.391	21.95
397.644	18.47
397.897	20.08
398.15	23.1
398.403	25.17
398.657	24.1
398.91	23.11
399.163	23.54
399.416	23.52
399.669	22.38
399.922	21.86
400.175	21.28
400.428	19.85
400.681	20.09
400.934	14.66
401.187	13.79
401.44	14.43
401.693	12.25
401.946	8.8
402.199	4.36
402.452	2.66
402.704	-1.77
402.957	-3.35
403.21	-1.79
403.463	-1.24
403.716	-0.21
403.969	2.03
404.221	1.84
404.474	4.19
404.727	8.32
404.98	11.23
405.232	11.87
405.485	14.26
405.738	16.31
405.99	15.69
406.243	16.65
406.496	19.04
406.748	19.41
407.001	19.37
407.253	19.04
407.506	19.97
407.759	21.97
408.011	17.96
408.264	17.92
408.516	18.67
408.769	17.7
409.021	17.61
409.274	16.02
409.526	19.73
409.778	18.05
410.031	21.46
410.283	21.88
410.536	27.97
410.788	28.35
411.04	28.52
411.293	30.67
411.545	31.25
411.797	28.86
412.049	29
412.302	29.77
412.554	30.61
412.806	28.78
413.058	27.32
413.311	27.36
413.563	24.54
413.815	24.13
414.067	21.83
414.319	20.67
414.571	21.17
414.823	19.16
415.075	18.75
415.328	19.88
415.58	23.5
415.832	27.22
416.084	28.58
416.336	27.16
416.588	32.34
416.84	32.1
417.091	35.98
417.343	31.84
417.595	35.75
417.847	36.87
418.099	39.16
418.351	39.09
418.603	42.54
418.855	43.06
419.106	42.51
419.358	43.44
419.61	44.6
419.862	46.82
420.114	44.42
420.365	44.37
420.617	45.21
420.869	44.21
421.12	43.93
421.372	45.9
421.624	46.33
421.875	47.9
422.127	44.09
422.379	45.49
422.63	48.09
422.882	48.41
423.133	48.84
423.385	49.27
423.636	49.93
423.888	53.21
424.139	56.49
424.391	53.34
424.642	53.11
424.894	51.93
425.145	53.45
425.396	50.27
425.648	53.67
425.899	51.66
426.151	52.36
426.402	50.98
426.653	52.37
426.905	52.19
427.156	50.92
427.407	51.83
427.658	51.61
427.91	51.25
428.161	50.9
428.412	53.2
428.663	56.07
428.914	58.65
429.166	61.14
429.417	62.84
429.668	62.05
429.919	61.39
430.17	60.59
430.421	61.67
430.672	66.65
430.923	67.8
431.174	66.57
431.425	68.34
431.676	68.98
431.927	66.48
432.178	69.91
432.429	70.88
432.68	71.38
432.931	75.87
433.182	80.41
433.433	79.01
433.683	83.27
433.934	82.77
434.185	83.02
434.436	81.81
434.687	84.99
434.937	88.07
435.188	87.77
435.439	87.93
435.69	90.7
435.94	91.22
436.191	93.06
436.442	92.64
436.692	93.13
436.943	91.52
437.194	90.63
437.444	95.04
437.695	102.06
437.945	105.51
438.196	105.75
438.447	105.57
438.697	107.69
438.948	109.23
439.198	108.34
439.449	105.46
439.699	108.13
439.949	109.37
440.2	110.9
440.45	114.91
440.701	115.57
440.951	117.55
441.201	120.26
441.452	120.55
441.702	122.48
441.952	126.62
442.203	129.75
442.453	129.77
442.703	132.99
442.953	137.18
443.204	141.27
443.454	141.72
443.704	144.76
443.954	144.71
444.204	148.46
444.455	152.21
444.705	157.64
444.955	161.87
445.205	164.02
445.455	164.99
445.705	167.8
445.955	173.34
446.205	176.05
446.455	180.14
446.705	183.84
446.955	188.29
447.205	194.07
447.455	200.19
447.705	202.6
447.955	206.84
448.205	211
448.454	214.17
448.704	219.74
448.954	222.14
449.204	226.8
449.454	231.35
449.704	233.55
449.953	238.48
450.203	245.89
450.453	248.49
450.703	255.68
450.952	259.59
451.202	266.25
451.452	270.43
451.701	279.22
451.951	288.14
452.201	292.07
452.45	296.59
452.7	302.76
452.949	308.96
453.199	313.3
453.448	319.97
453.698	326.07
453.947	329.79
454.197	332.13
454.446	337.29
454.696	344.83
454.945	348.46
455.195	350.11
455.444	354.43
455.693	361.1
455.943	360.78
456.192	366.83
456.442	370.08
456.691	374.99
456.94	376.54
457.189	377.5
457.439	383.04
457.688	385.57
457.937	386.08
458.186	389.12
458.436	389.72
458.685	392.78
458.934	393.57
459.183	394.05
459.432	397.07
459.681	397.41
459.93	396.77
460.179	396.69
460.429	394.54
460.678	396.06
460.927	397.91
461.176	395.94
461.425	393.05
461.674	394.87
461.923	394.71
462.172	393.49
462.42	390.43
462.669	391.72
462.918	389.98
463.167	388.1
463.416	384.84
463.665	386.37
463.914	383.04
464.162	379.37
464.411	377.95
464.66	378.43
464.909	377.24
465.158	376.04
465.406	375.88
465.655	375.66
465.904	375.79
466.152	374.42
466.401	372.6
466.65	372.71
466.898	370.54
467.147	364.24
467.395	361.48
467.644	362.63
467.893	358.28
468.141	356.99
468.39	352.53
468.638	348.21
468.887	344.68
469.135	343.29
469.384	342.38
469.632	341.37
469.88	339.47
470.129	339.5
470.377	336.35
470.626	338.72
470.874	339.64
471.122	339.47
471.371	335.88
471.619	334.14
471.867	336.33
472.115	335.08
472.364	332.79
472.612	335.62
472.86	331.63
473.108	331
473.356	330.46
473.605	327.81
473.853	323.64
474.101	322
474.349	319.27
474.597	321.65
474.845	319.64
475.093	318.41
475.341	314.43
475.589	315.45
475.837	314.99
476.085	314.98
476.333	313.33
476.581	315.62
476.829	314.91
477.077	315.01
477.325	314.9
477.573	316.53
477.821	314.97
478.069	314.3
478.317	312.6
478.564	315.46
478.812	312.68
479.06	312.02
479.308	310.83
479.555	309.12
479.803	307.04
480.051	308.2
480.299	307.35
480.546	308.49
480.794	305.71
481.042	306.03
481.289	305.98
481.537	307.63
481.784	308
482.032	312.3
482.28	313.02
482.527	313.55
482.775	315.19
483.022	317.96
483.27	321.21
483.517	325.86
483.765	325.91
484.012	327.5
484.259	326.16
484.507	329.1
484.754	331.1
485.002	332.63
485.249	332.61
485.496	337.28
485.744	338.66
485.991	339.69
486.238	336.85
486.486	341.97
486.733	344.59
486.98	349.93
487.227	350.65
487.474	353.41
487.722	357.53
487.969	355.75
488.216	357.62
488.463	359.22
488.71	359.24
488.957	360.14
489.204	362.22
489.451	364.23
489.699	365.95
489.946	364.27
490.193	365.61
490.44	366.33
490.687	368.98
490.934	367.69
491.18	366.14
491.427	370.75
491.674	375.79
491.921	379.13
492.168	380.06
492.415	380.59
492.662	384.09
492.909	387.54
493.155	388.42
493.402	389.31
493.649	389.94
493.896	394.88
494.142	393.8
494.389	396.69
494.636	396.53
494.883	396.33
495.129	398.46
495.376	398.31
495.623	403.65
495.869	407.31
496.116	411.5
496.362	414.87
496.609	420.65
496.855	428.38
497.102	432.75
497.348	433.68
497.595	438.55
497.841	445.65
498.088	447.5
498.334	449.8
498.581	451.94
498.827	455.56
499.074	457.46
499.32	462.15
499.566	468.42
499.813	471.95
500.059	472.98
500.305	475.64
500.552	478.14
500.798	480.8
501.044	488.95
501.29	490.51
501.537	490
501.783	493.87
502.029	500.19
502.275	501.09
502.521	504.62
502.767	509.27
503.013	515.92
503.26	515.82
503.506	516.02
503.752	520.28
503.998	522.99
504.244	525.91
504.49	526.62
504.736	529.66
504.982	531.74
505.228	536.15
505.474	538.75
505.72	541.82
505.966	543.44
506.211	549.86
506.457	551.14
506.703	551.7
506.949	552.72
507.195	554
507.441	553.52
507.686	559.79
507.932	561.64
508.178	565.85
508.424	565.57
508.669	565.4
508.915	569.55
509.161	574.03
509.406	578.59
509.652	579.5
509.898	585.96
510.143	587.68
510.389	588.94
510.634	586.04
510.88	592.53
511.125	596.8
511.371	600.27
511.616	602.74
511.862	602.03
512.107	600.65
512.353	604.3
512.598	606.98
512.844	606.66
513.089	606.87
513.335	610.26
513.58	612.1
513.825	613.31
514.071	616.25
514.316	617.66
514.561	620.14
514.806	619.82
515.052	624.63
515.297	624.78
515.542	628.05
515.787	629.99
516.033	634.59
516.278	637.12
516.523	638.58
516.768	640.75
517.013	640.5
517.258	642.23
517.503	643.42
517.748	646.84
517.993	649.36
518.238	652.58
518.483	651.53
518.728	654.33
518.973	653.25
519.218	654.1
519.463	657.1
519.708	658.96
519.953	658.71
520.198	661.28
520.443	666.03
520.688	670.92
520.933	673.03
521.177	674.24
521.422	673.37
521.667	676.89
521.912	679.55
522.157	677.76
522.401	682.11
522.646	683.78
522.891	684.58
523.135	687.19
523.38	688.2
523.625	688.67
523.869	690.84
524.114	694.19
524.358	693.23
524.603	693.76
524.848	693.01
525.092	693.93
525.337	697.11
525.581	699.76
525.826	703.72
526.07	706.88
526.315	708.74
526.559	710.49
526.803	712.47
527.048	718.36
527.292	721.93
527.537	723.05
527.781	724.31
528.025	721.83
528.269	722.23
528.514	723.77
528.758	724.67
529.002	727.21
529.247	731.89
529.491	732.36
529.735	738.18
529.979	738.71
530.223	740.05
530.467	738.85
530.712	738.17
530.956	739.48
531.2	740.96
531.444	739.14
531.688	741.79
531.932	743.23
532.176	746.22
532.42	748.35
532.664	750.76
532.908	751.4
533.152	750.21
533.396	749.31
533.64	747.44
533.884	745.93
534.128	745.83
534.371	747.58
534.615	749.26
534.859	748.1
535.103	747.33
535.347	748.52
535.59	752.1
535.834	751.73
536.078	754.39
536.322	757.2
536.565	762.14
536.809	760.32
537.053	764.06
537.296	762.31
537.54	763.99
537.784	766.5
538.027	769.26
538.271	769.02
538.514	768.83
538.758	770.62
539.001	772.88
539.245	772.16
539.488	774.47
539.732	777.24
539.975	778.86
540.219	781.29
540.462	781.3
540.706	786.11
540.949	786.79
541.192	789.71
541.436	798.21
541.679	804.82
541.922	806.26
542.166	801.82
542.409	804.02
542.652	807.7
542.895	809.4
543.139	811.1
543.382	816.12
543.625	815.82
543.868	818.14
544.111	818.07
544.354	818.49
544.598	817.66
544.841	821.31
545.084	820.93
545.327	821.71
545.57	826.36
545.813	829.96
546.056	831.05
546.299	831.78
546.542	833.65
546.785	837.28
547.028	839.07
547.271	839.51
547.514	839.01
547.756	838.13
547.999	840.01
548.242	840.25
548.485	839.48
548.728	840.94
548.971	834.87
549.213	836.29
549.456	835.77
549.699	838.14
549.942	838.98
550.184	839.18
550.427	840.88
550.67	841.7
550.912	837.97
551.155	840.43
551.398	840.64
551.64	840.98
551.883	842.94
552.125	844.56
552.368	846.47
552.61	846.63
552.853	849.51
553.095	848.7
553.338	849.03
553.58	850.58
553.823	851.12
554.065	856.36
554.308	856.21
554.55	855.52
554.792	856.12
555.035	860.08
555.277	859.75
555.519	862.2
555.762	861.79
556.004	865.86
556.246	865.13
556.488	870
556.731	867.41
556.973	870.8
557.215	871.36
557.457	875.82
557.699	880.63
557.941	880.41
558.183	882.22
558.426	887.01
558.668	885.89
558.91	888.24
559.152	891.18
559.394	893.74
559.636	896.66
559.878	897.83
560.12	899.77
560.362	904.2
560.604	906.23
560.845	907.58
561.087	908.76
561.329	913.84
561.571	913.44
561.813	916.94
562.055	918.55
562.297	921.47
562.538	923.75
562.78	928.74
563.022	928.94
563.264	934.27
563.505	936.65
563.747	940.61
563.989	941.1
564.23	945.45
564.472	948.88
564.714	956.56
564.955	959.41
565.197	961.01
565.438	965.83
565.68	973.46
565.921	975.85
566.163	980.52
566.404	984.49
566.646	990.93
566.887	997.11
567.129	1004.27
567.37	1008.53
567.612	1015.57
567.853	1015.17
568.094	1022.3
568.336	1028.63
568.577	1036.78
568.818	1040.55
569.06	1043.44
569.301	1044.4
569.542	1052.6
569.783	1060.16
570.025	1065.11
570.266	1072.3
570.507	1080.59
570.748	1084.58
570.989	1091.65
571.23	1099.73
571.472	1104.2
571.713	1107.96
571.954	1113.16
572.195	1115.89
572.436	1122.27
572.677	1127.96
572.918	1133.72
573.159	1134.57
573.4	1137.06
573.641	1139.94
573.882	1143.52
574.123	1143.32
574.364	1139.5
574.604	1143.27
574.845	1143.62
575.086	1146.41
575.327	1149.42
575.568	1149.83
575.809	1150.16
576.049	1150.11
576.29	1150.8
576.531	1158
576.771	1164.34
577.012	1166.5
577.253	1166.81
577.494	1167.65
577.734	1168.13
577.975	1168.45
578.215	1168.18
578.456	1168.13
578.697	1168.57
578.937	1171.87
579.178	1172.04
579.418	1170.22
579.659	1168.19
579.899	1165.56
580.14	1163.63
580.38	1162.65
580.62	1163.72
580.861	1166.95
581.101	1168.17
581.342	1168.76
581.582	1164.79
581.822	1169.87
582.063	1167.18
582.303	1170.19
582.543	1171.57
582.783	1174.37
583.024	1176.51
583.264	1180.78
583.504	1179.64
583.744	1183.07
583.984	1182.71
584.224	1184.48
584.465	1185.47
584.705	1187.87
584.945	1190.21
585.185	1190.96
585.425	1193.53
585.665	1195.02
585.905	1195.72
586.145	1197.66
586.385	1198.19
586.625	1203.04
586.865	1204.85
587.105	1207.49
587.345	1208.82
587.585	1211.91
587.824	1212.83
588.064	1214.21
588.304	1213.59
588.544	1214.41
588.784	1214.93
589.024	1220.79
589.263	1221.6
589.503	1222.48
589.743	1226.23
589.982	1225.61
590.222	1228.84
590.462	1229.93
590.701	1230.12
590.941	1236.01
591.181	1237.32
591.42	1238.61
591.66	1243.15
591.899	1246.78
592.139	1247.11
592.378	1250.12
592.618	1250
592.857	1251.64
593.097	1256.66
593.336	1259.1
593.576	1260.92
593.815	1263.16
594.055	1264.51
594.294	1268.91
594.533	1272.42
594.773	1275.57
595.012	1280.87
595.251	1285.8
595.491	1293.21
595.73	1300.78
595.969	1307.21
596.208	1311.17
596.447	1319.23
596.687	1323.27
596.926	1329.11
597.165	1329.68
597.404	1335.53
597.643	1337.33
597.882	1339.32
598.121	1345.61
598.36	1350.43
598.599	1355.45
598.838	1357.38
599.077	1356.14
599.316	1361.61
599.555	1365.92
599.794	1370.2
600.033	1378.14
600.272	1382.19
600.511	1382.21
600.75	1387.06
600.989	1391.31
601.228	1395.84
601.466	1398.77
601.705	1401.47
601.944	1404.89
602.183	1410.39
602.422	1410.38
602.66	1410.4
602.899	1410.19
603.138	1410.31
603.376	1409.76
603.615	1411.1
603.854	1409.44
604.092	1409.79
604.331	1409.65
604.569	1410.3
604.808	1408.51
605.047	1408.31
605.285	1406.84
605.524	1403.86
605.762	1400.14
606	1398.36
606.239	1398.7
606.477	1397.02
606.716	1388.33
606.954	1383.56
607.193	1376.57
607.431	1367.8
607.669	1364.16
607.908	1359.88
608.146	1355.89
608.384	1351.29
608.622	1345.29
608.861	1339.97
609.099	1335.08
609.337	1328.56
609.575	1324.07
609.813	1320.04
610.052	1316.96
610.29	1307.29
610.528	1301.06
610.766	1297.34
611.004	1292.82
611.242	1285.75
611.48	1283.27
611.718	1277.91
611.956	1274.16
612.194	1268.97
612.432	1263.39
612.67	1259.67
612.908	1257.08
613.146	1250.61
613.384	1246.4
613.621	1239.34
613.859	1235.05
614.097	1231.94
614.335	1229.22
614.573	1226.66
614.811	1225.01
615.048	1218.25
615.286	1213.94
615.524	1209.22
615.761	1202.26
615.999	1199.18
616.237	1195.17
616.474	1192.29
616.712	1189.83
616.95	1183.23
617.187	1178.07
617.425	1172.69
617.662	1171.05
617.9	1166.27
618.137	1159.78
618.375	1154.08
618.612	1149.91
618.85	1146.64
619.087	1145.59
619.325	1140.96
619.562	1136.41
619.799	1130.62
620.037	1125.1
620.274	1116.97
620.511	1114.94
620.749	1107.76
620.986	1102.66
621.223	1094.89
621.461	1090.34
621.698	1087.43
621.935	1083.47
622.172	1078.15
622.409	1076.25
622.647	1074.17
622.884	1068.74
623.121	1067.84
623.358	1061.73
623.595	1057.7
623.832	1055.4
624.069	1050.71
624.306	1048.33
624.543	1047.38
624.78	1046.28
625.017	1041.7
625.254	1039.24
625.491	1037.86
625.728	1036.1
625.965	1033.16
626.202	1028.03
626.438	1020.85
626.675	1016.07
626.912	1014.33
627.149	1012.55
627.386	1009.88
627.622	1006.48
627.859	1000.73
628.096	997.29
628.333	995.14
628.569	994.39
628.806	992.47
629.043	987.5
629.279	985.39
629.516	983.89
629.752	977.14
629.989	974.31
630.225	968.71
630.462	964.54
630.699	963.21
630.935	959.56
631.171	952.19
631.408	948.58
631.644	942.62
631.881	935.88
632.117	929.82
632.354	927.45
632.59	922.36
632.826	917.89
633.063	914.68
633.299	912.01
633.535	905.46
633.771	900.73
634.008	900.19
634.244	896.38
634.48	891.41
634.716	888.94
634.953	885.07
635.189	882.01
635.425	878.85
635.661	875.12
635.897	869.04
636.133	864.15
636.369	858.75
636.605	849.47
636.841	843.9
637.077	840.68
637.313	835.61
637.549	832.25
637.785	826.27
638.021	820.73
638.257	814.79
638.493	811.58
638.729	804.92
638.965	804.03
639.2	800.79
639.436	795.07
639.672	789.33
639.908	783.81
640.144	783.48
640.379	781.45
640.615	774.58
640.851	773.88
641.086	771.82
641.322	765.9
641.558	761.62
641.793	758.13
642.029	750.8
642.264	745.6
642.5	742.46
642.736	735.66
642.971	733.54
643.207	728.13
643.442	722.48
643.678	719.85
643.913	718.4
644.148	714.17
644.384	712.65
644.619	708.24
644.855	707.36
645.09	705.3
645.325	700.9
645.561	697.67
645.796	693.57
646.031	693.76
646.266	686.75
646.502	682.69
646.737	680.05
646.972	675.15
647.207	672.44
647.442	665.08
647.678	657.94
647.913	657.66
648.148	653.18
648.383	648.6
648.618	643.84
648.853	641.93
649.088	641.14
649.323	642.81
649.558	641.05
649.793	637.4
650.028	636.77
650.263	629.17
650.498	630.56
650.733	627.56
650.968	621.87
651.202	620.85
651.437	615.18
651.672	609.42
651.907	606.02
652.142	601.98
652.376	597.46
652.611	596.18
652.846	594.69
653.081	590.98
653.315	585.45
653.55	582.9
653.785	578.38
654.019	578.73
654.254	574.95
654.488	573.22
654.723	568.14
654.958	563.29
655.192	557.73
655.427	552.84
655.661	551.95
655.896	551.8
656.13	549.19
656.364	542.2
656.599	534.22
656.833	538.88
657.068	537.85
657.302	533.5
657.536	529.23
657.771	524.88
658.005	523.24
658.239	521.96
658.474	515.74
658.708	513.6
658.942	510.75
659.176	505.34
659.41	497.61
659.645	494.12
659.879	490.27
660.113	483.66
660.347	479.87
660.581	475.22
660.815	470.57
661.049	466.74
661.283	459.71
661.517	456.07
661.751	450.56
661.985	446.54
662.219	444.87
662.453	440.27
662.687	438.12
662.921	431.41
663.155	426.42
663.389	417.5
663.622	413.79
663.856	414.58
664.09	403
664.324	398.98
664.558	396.19
664.791	392.36
665.025	390.73
665.259	387.55
665.492	384.02
665.726	385.02
665.96	382.37
666.193	378.2
666.427	378.43
666.661	377.42
666.894	375.93
667.128	373.33
667.361	372.33
667.595	368.95
667.828	365.61
668.062	363.63
668.295	360.99
668.529	359.49
668.762	357.87
668.995	355.3
669.229	357.18
669.462	354.85
669.695	353.22
669.929	348.88
670.162	346.75
670.395	343.84
670.629	344.24
670.862	343.93
671.095	336.87
671.328	335.29
671.561	329.01
671.795	327.63
672.028	328.69
672.261	326.2
672.494	325.53
672.727	320.36
672.96	318.86
673.193	315.84
673.426	318.89
673.659	316.31
673.892	314.62
674.125	309.75
674.358	305.55
674.591	303.44
674.824	301.43
675.057	299.44
675.29	296.75
675.523	297.4
675.755	293.24
675.988	293.21
676.221	293.49
676.454	288.32
676.687	287.73
676.919	284.38
677.152	282.96
677.385	279.98
677.617	278.27
677.85	276.5
678.083	273.41
678.315	274.83
678.548	271.02
678.78	269.9
679.013	267.9
679.246	266.45
679.478	265.56
679.711	260.93
679.943	262.66
680.175	257.24
680.408	259.27
680.64	251.73
680.873	250
681.105	248.63
681.338	250.28
681.57	248.63
681.802	248.01
682.034	245.91
682.267	247.99
682.499	247.39
682.731	242.4
682.964	239.17
683.196	235.28
683.428	231.26
683.66	230.4
683.892	231.31
684.124	232.38
684.356	234.07
684.589	233.16
684.821	230.04
685.053	228.2
685.285	226.05
685.517	225.37
685.749	224.88
685.981	224.77
686.213	222.66
686.445	221.15
686.676	216.61
686.908	215.71
687.14	212.32
687.372	210.14
687.604	206
687.836	206.77
688.068	205
688.299	202.95
688.531	199.51
688.763	202.72
688.995	199.12
689.226	199.98
689.458	196.01
689.69	192.45
689.921	189.66
690.153	190.16
690.384	189.05
690.616	187.87
690.848	187.01
691.079	181.36
691.311	177.17
691.542	170.37
691.774	167.96
692.005	168.86
692.237	169.78
692.468	167.22
692.699	165.25
692.931	163.32
693.162	159.42
693.393	157.75
693.625	155.4
693.856	154.8
694.087	152.01
694.319	152.62
694.55	151.49
694.781	150.1
695.012	148.22
695.243	145.42
695.475	144.49
695.706	143.24
695.937	140.63
696.168	138.87
696.399	136.45
696.63	135.1
696.861	134.82
697.092	139.12
697.323	141.49
697.554	141.94
697.785	141.23
698.016	140.56
698.247	139.46
698.478	140.42
698.709	143.03
698.94	144.55
699.171	143.87
699.401	139.05
699.632	139.67
699.863	134.64
700.094	133.27
700.325	135.29
700.555	136.02
700.786	135.23
701.017	134.06
701.247	133.65
701.478	133.19
701.709	133.72
701.939	130.75
702.17	131.56
702.401	133.43
702.631	132.48
702.862	130.53
703.092	126.34
703.323	128.77
703.553	129.55
703.784	129.72
704.014	128.91
704.244	122.45
704.475	118.46
704.705	116.41
704.936	115.77
705.166	113.36
705.396	113.31
705.627	112.12
705.857	110.66
706.087	109.94
706.317	106.25
706.548	103.52
706.778	102.1
707.008	103.96
707.238	103.93
707.468	101.76
707.698	98.69
707.928	97.63
708.158	95.94
708.389	96.1
708.619	92.2
708.849	89.31
709.079	89.89
709.309	87.2
709.539	82.33
709.768	81.02
709.998	82.35
710.228	80.66
710.458	78.27
710.688	74.69
710.918	72.64
711.148	70.73
711.378	72.51
711.607	72.35
711.837	73.1
712.067	72.36
712.297	71.55
712.526	70.8
712.756	71.84
712.986	68.51
713.215	64.44
713.445	65.41
713.674	65.91
713.904	66.23
714.134	68.26
714.363	68.06
714.593	65.86
714.822	64.65
715.052	63.65
715.281	64.13
715.511	61.29
715.74	61.94
715.969	59.77
716.199	58.97
716.428	58.55
716.657	58.91
716.887	61.78
717.116	59.36
717.345	60.59
717.575	59.66
717.804	58.92
718.033	57.33
718.262	56.43
718.492	56.4
718.721	55.34
718.95	53.2
719.179	51.57
719.408	51.88
719.637	47.73
719.866	43.95
720.095	46
720.324	46.58
720.553	41.22
720.782	40.04
721.011	37.46
721.24	33.84
721.469	31.18
721.698	32.45
721.927	30.65
722.156	28.53
722.385	27.29
722.613	30.23
722.842	30.81
723.071	34.8
723.3	34.99
723.529	33.91
723.757	34.69
723.986	30.3
724.215	29.13
724.443	31.26
724.672	32.55
724.901	33.63
725.129	36.45
725.358	39.71
725.586	36.54
725.815	36.1
726.043	36.25
726.272	33.49
726.5	33.11
726.729	34.74
726.957	31.95
727.186	29.32
727.414	29.98
727.642	32.55
727.871	34.22
728.099	34.78
728.327	34.31
728.556	36.23
728.784	36.11
729.012	35.92
729.241	38.65
729.469	38.34
729.697	34.7
729.925	34.21
730.153	31.82
730.381	31.37
730.61	30.58
730.838	27.66
731.066	29.46
731.294	30.32
731.522	26.47
731.75	22.03
731.978	20.84
732.206	18.45
732.434	15.64
732.662	17.3
732.89	15.98
733.118	14.3
733.346	14.32
733.573	15.19
733.801	14.66
734.029	22.51
734.257	23.73
734.485	26.67
734.712	27.99
734.94	25.45
735.168	27.9
735.396	28.1
735.623	26.64
735.851	27.33
736.078	29.22
736.306	28.25
736.534	26.12
736.761	27.64
736.989	25.7
737.216	24.15
737.444	21.99
737.671	23.54
737.899	28.06
738.126	26.3
738.354	24.85
738.581	25.23
738.809	26.68
739.036	24.98
739.263	25.67
739.491	24.7
739.718	23.37
739.945	28.1
740.173	29.99
740.4	30.27
740.627	28.02
740.854	28.74
741.081	24.97
741.309	23.69
741.536	19.06
741.763	17.38
741.99	18.45
742.217	17.76
742.444	17.12
742.671	18.43
742.898	18.22
743.125	14.76
743.352	12.1
743.579	11.97
743.806	10.96
744.033	12.91
744.26	14.83
744.487	15.35
744.714	15.25
744.941	15.21
745.167	17.96
745.394	16.2
745.621	15.58
745.848	16.28
746.075	18.47
746.301	20.8
746.528	23.61
746.755	22.82
746.981	20.51
747.208	22
747.435	24.83
747.661	25.43
747.888	26.35
748.114	24.19
748.341	26.19
748.567	27.66
748.794	26.09
749.02	25.92
749.247	22.95
749.473	22.33
749.7	21.28
749.926	19.75
750.152	23.56
750.379	24.57
750.605	25.95
750.831	26.14
751.058	25.17
751.284	22.87
751.51	26
751.737	27.17
751.963	25.02
752.189	24.75
752.415	26.29
752.641	26.39
752.867	25.3
753.094	23.56
753.32	22.12
753.546	22.08
753.772	24.1
753.998	23.64
754.224	22.38
754.45	21.31
754.676	20.18
754.902	18.38
755.128	18.13
755.354	17.09
755.579	17.29
755.805	18.91
756.031	17.12
756.257	17.04
756.483	15.6
756.709	13.22
756.934	13.78
757.16	11.67
757.386	12.99
757.612	10.01
757.837	8.21
758.063	9.78
758.289	12.71
758.514	9.68
758.74	5.71
758.965	2.38
759.191	1.85
759.416	2.1
759.642	3.62
759.868	5.24
760.093	7.66
760.318	5.73
760.544	4.35
760.769	3.79
760.995	1.97
761.22	0.56
761.445	1.62
761.671	3.73
761.896	5.47
762.121	5.58
762.347	4.76
762.572	2.25
762.797	2.1
763.022	3.04
763.248	7.25
763.473	8.53
763.698	8.3
763.923	9.58
764.148	9.25
764.373	8.79
764.598	11.64
764.823	14.69
765.048	11.5
765.273	7.93
765.498	7.49
765.723	7.1
765.948	9.15
766.173	7.88
766.398	7.94
766.623	4.41
766.848	1.6
767.073	-1.45
767.298	-1.42
767.522	-1.64
767.747	-0.83
767.972	-0.55
768.197	0.13
768.421	-1.25
768.646	-7.07
768.871	-9.03
769.095	-6.72
769.32	-4.92
769.545	-3.24
769.769	-2.12
769.994	-1.77
770.218	-4.69
770.443	-3.23
770.667	-0.74
770.892	-2.08
771.116	-3.75
771.341	-2.83
771.565	-3.68
771.79	-4.72
772.014	-5
772.238	-5.72
772.463	-4.18
772.687	-3.32
772.911	-5.22
773.136	-6.78
773.36	-5.45
773.584	-3.3
773.808	-4.37
774.033	-2.88
774.257	-3.26
774.481	-4.53
774.705	-6.73
774.929	-7.01
775.153	-6.23
775.377	-4.32
775.602	-1.64
775.826	-0.7
776.05	-0.27
776.274	-2.32
776.498	-4.06
776.722	-5.57
776.945	-3.56
777.169	-3.31
777.393	-5.23
777.617	-5.67
777.841	-5.98
778.065	-3.53
778.289	-4.14
778.512	-5.82
778.736	-5.58
778.96	-6.37
779.184	-3.36
779.407	-4.21
779.631	-3.45
779.855	-2.87
780.078	-1.25
780.302	-2.53
780.526	-4.26
780.749	-3.78
780.973	-2.9
781.196	-2.08
781.42	-3.93
781.643	-2.27
781.867	-1.58
782.09	-4.81
782.314	-7.11
782.537	-8.91
782.76	-10.32
782.984	-8.44
783.207	-8.59
783.431	-7.79
783.654	-9.13
783.877	-12.32
784.1	-14.09
784.324	-14.41
784.547	-15.05
784.77	-18.17
784.993	-17.59
785.216	-20.5
785.44	-19.29
785.663	-20.21
785.886	-17.42
786.109	-18.69
786.332	-18
786.555	-17.79
786.778	-15.92
787.001	-16.45
787.224	-16.16
787.447	-14.58
787.67	-11.94
787.893	-11.84
788.116	-11.36
788.339	-9.8
788.561	-11.53
788.784	-14.1
789.007	-15.08
789.23	-15.98
789.453	-15.24
789.675	-16.56
789.898	-20.74
790.121	-22.77
790.344	-22.85
790.566	-22.02
790.789	-21.04
791.012	-20.72
791.234	-18.52
791.457	-16.65
791.679	-14.99
791.902	-17.26
792.124	-15.71
792.347	-16.13
792.569	-17.26
792.792	-19.83
793.014	-17.13
793.237	-16.01
793.459	-16.17
793.681	-16.75
793.904	-16.71
794.126	-18.25
794.348	-19.38
794.571	-18.04
794.793	-19.45
795.015	-19
795.237	-18.94
795.46	-17.85
795.682	-16.83
795.904	-13.78
796.126	-14.7
796.348	-15.07
796.57	-11.5
796.792	-10.25
797.014	-6.3
797.237	-3.33
797.459	-0.79
797.681	0.38
797.903	-1.6
798.124	-0.84
798.346	11.3
798.568	12.71
798.79	15.7
799.012	16.58
799.234	18.22
799.456	19.54
799.678	21.99
799.899	18.89
800.121	15.7
800.343	15.66
800.565	15.97
800.786	16.67
801.008	19.5
801.23	19.31
801.451	20
801.673	17.7
801.895	15.85
802.116	18.62
802.338	19.5
802.559	18.86
802.781	17.09
803.002	19.84
803.224	23.07
803.445	21.08
803.667	21.61
803.888	20.4
804.109	19.29
804.331	17.68
804.552	16.52
804.773	20.35
804.995	17.43
805.216	1.45
805.437	-0.66
805.658	-2.65
805.88	-3.56
806.101	-4.04
806.322	-3.62
806.543	-4.38
806.764	-6.2
806.985	-4.26
807.207	-3.2
807.428	-3.15
807.649	-7.14
807.87	-10.16
808.091	-8.87
808.312	-9.39
808.533	-3.33
808.754	-0.36
808.975	-3.44
809.195	-2.21
809.416	-0.47
809.637	-0.95
809.858	-2.56
810.079	-4.69
810.3	-2.68
810.52	-2.73
810.741	-6.09
810.962	-9.29
811.183	-9.3
811.403	-7.93
811.624	-10.17
811.845	-8.4
812.065	-5.68
812.286	-3.62
812.506	-3.39
812.727	-3.2
812.948	-1.77
813.168	0.55
813.389	-1.68
813.609	0.81
813.83	-0.27
814.05	-1.64
814.27	-1.03
814.491	2.92
814.711	2.61
814.931	-0.4
815.152	-1.35
815.372	-3.88
815.592	-4.35
815.813	-4.94
816.033	-5.81
816.253	-5.76
816.473	-6.34
816.694	-5.05
816.914	-3.59
817.134	-3.97
817.354	-7.37
817.574	-5.54
817.794	-4.55
818.014	-4.96
818.234	-6.24
818.454	-6.86
818.674	-9.07
818.894	-11.28
819.114	-10.06
819.334	-9.71
819.554	-8.15
819.774	-5.39
819.994	-8.12
820.214	-7.88
820.433	-6.96
820.653	-7.32
820.873	-5.84
821.093	-6.4
821.312	-8.42
821.532	-6.06
821.752	-2.97
821.972	-5.17
822.191	-3.36
822.411	-5.25
822.63	-5.4
822.85	-6.12
823.07	-9.08
823.289	-8.58
823.509	-10.42
823.728	-9.08
823.948	-10.69
824.167	-10.11
824.387	-10.51
824.606	-8.25
824.825	-11.06
825.045	-12.06
825.264	-12.78
825.483	-11.16
825.703	-9.87
825.922	-12.56
826.141	-13.75
826.361	-15.11
826.58	-20.54
826.799	-22.62
827.018	-22.43
827.237	-23.72
827.456	-21.7
827.676	-20.59
827.895	-19.19
828.114	-17.85
828.333	-18.63
828.552	-19.55
828.771	-18.23
828.99	-21.66
829.209	-20.45
829.428	-16.61
829.647	-17.27
829.866	-15.83
830.084	-14.6
830.303	-14.9
830.522	-15.8
830.741	-15.4
830.96	-14.59
831.179	-13.75
831.397	-16.69
831.616	-14.12
831.835	-13.16
832.053	-11.44
832.272	-11.03
832.491	-9.82
832.709	-10.3
832.928	-10.15
833.147	-9.96
833.365	-8.53
833.584	-5.32
833.802	-2.45
834.021	-1.8
834.239	-1.21
834.458	-3.51
834.676	-7.85
834.894	-8.31
835.113	-8.7
835.331	-8.7
835.55	-9.59
835.768	-9.05
835.986	-9.43
836.204	-12.63
836.423	-11.76
836.641	-12.29
836.859	-13.78
837.077	-13.57
837.296	-14.59
837.514	-14.99
837.732	-16.18
837.95	-16.34
838.168	-11.88
838.386	-13.48
838.604	-11.27
838.822	-10.99
839.04	-12.8
839.258	-13.78
839.476	-11.46
839.694	-10.79
839.912	-13.09
840.13	-13.03
840.348	-9.86
840.566	-11.96
840.783	-10.66
841.001	-11.65
841.219	-9.63
841.437	-7.32
841.655	-5.71
841.872	-5.64
842.09	-6.71
842.308	-4.47
842.525	-4.18
842.743	-2.68
842.961	-3.14
843.178	-5.67
843.396	-1.7
843.613	-0.47
843.831	0.65
844.048	0.88
844.266	0.52
844.483	0.88
844.701	-1.78
844.918	-2.92
845.136	-2.13
845.353	-4.26
845.57	-2.84
845.788	0.13
846.005	-0.7
846.222	-2.5
846.439	-1.19
846.657	0.44
846.874	0.09
847.091	-3.7
847.308	-2.07
847.526	-4.89
847.743	-5.05
847.96	-6.61
848.177	-6.62
848.394	-7.47
848.611	-7.89
848.828	-7.52
849.045	-8.77
849.262	-8.1
849.479	-8.86
849.696	-9.94
849.913	-10.12
850.13	-14.34
850.347	-11.6
850.564	-11.5
850.78	-11.97
850.997	-13.94
851.214	-14.07
851.431	-12.08
851.647	-15.11
851.864	-15.5
852.081	-13.6
852.298	-17.92
852.514	-19.23
852.731	-16.1
852.948	-14.09
853.164	-13.74
853.381	-13.86
853.597	-14.18
853.814	-15.2
854.03	-18.75
854.247	-15.51
854.463	-16.49
854.68	-17.68
854.896	-18.02
855.113	-18.82
855.329	-17.97
855.545	-16.01
855.762	-18.23
855.978	-21.85
856.194	-24.02
856.411	-20.18
856.627	-18.46
856.843	-17.23
857.059	-16.24
857.275	-17.42
857.492	-18
857.708	-13.7
857.924	-11.1
858.14	-8.76
858.356	-10.53
858.572	-10.26
858.788	-11.77
859.004	-9.64
859.22	-11.79
859.436	-13.25
859.652	-14.7
859.868	-15.98
860.084	-17.02
860.3	-17.37
860.516	-17.81
860.731	-17.55
860.947	-20.73
861.163	-18.47
861.379	-17.16
861.595	-15.55
861.81	-13.74
862.026	-14.46
862.242	-14.89
862.457	-13.72
862.673	-11.43
862.889	-10.11
863.104	-10.63
863.32	-9.78
863.535	-9.08
863.751	-14.17
863.966	-12.05
864.182	-9.16
864.397	-11.19
864.613	-13.53
864.828	-15.18
865.044	-12.43
865.259	-9.53
865.474	-11.33
865.69	-9.25
865.905	-7.13
866.12	-9.88
866.336	-10.39
866.551	-9.48
866.766	-9.3
866.981	-10.59
867.196	-10.23
867.412	-9.53
867.627	-8.98
867.842	-10.38
868.057	-10.59
868.272	-10.83
868.487	-11.44
868.702	-11.74
868.917	-12.69
869.132	-10.92
869.347	-10.17
869.562	-12.02
869.777	-13.23
869.992	-13.47
870.207	-15.3
870.422	-14.79
870.636	-16.34
870.851	-19.17
871.066	-20.81
871.281	-20.91
871.495	-22.6
871.71	-20.78
871.925	-23.65
872.14	-22.61
872.354	-25.77
872.569	-27.92
872.783	-24.17
872.998	-23.74
873.213	-24.78
873.427	-21.31
873.642	-19.12
873.856	-18.04
874.071	-18.08
874.285	-19.09
874.5	-20.75
874.714	-21.67
874.928	-22.86
875.143	-24.71
875.357	-24.87
875.571	-27.02
875.786	-27.38
876	-23.24
876.214	-20.61
876.429	-22.01
876.643	-22.31
876.857	-20.18
877.071	-19.32
877.285	-20.36
877.499	-22.09
877.714	-18.77
877.928	-16.69
878.142	-16.76
878.356	-18.88
878.57	-18.2
878.784	-16.65
878.998	-16.49
879.212	-13.2
879.426	-15.4
879.639	-13.98
879.853	-15.46
880.067	-17.05
880.281	-18.69
880.495	-18.26
880.709	-15.57
880.922	-13.86
881.136	-11.87
881.35	-10.55
881.564	-11.23
881.777	-11.48
881.991	-9.81
882.205	-5.13
882.418	-5.23
882.632	-9.01
882.845	-9.99
883.059	-10.26
883.273	-11.4
883.486	-13.24
883.7	-10.88
883.913	-10.8
884.126	-9.96
884.34	-14.26
884.553	-16.7
884.767	-13.04
884.98	-13.48
885.193	-14.28
885.407	-15.08
885.62	-14.72
885.833	-14.99
886.046	-13.76
886.26	-15.88
886.473	-15.22
886.686	-15.24
886.899	-13.61
887.112	-15.21
887.326	-17.57
887.539	-17.25
887.752	-16.49
887.965	-18.46
888.178	-14.97
888.391	-14.71
888.604	-16.15
888.817	-18.6
889.03	-17.8
889.243	-19.89
889.455	-21.91
889.668	-20.45
889.881	-16.36
890.094	-16.94
890.307	-19.85
890.52	-17.96
890.732	-16.06
890.945	-15.1
891.158	-14.17
891.37	-17.28
891.583	-15.91
891.796	-13.34
892.008	-15.57
892.221	-14.63
892.434	-19.29
892.646	-20.1
892.859	-21.13
893.071	-19.9
893.284	-18.31
893.496	-18.59
893.709	-18.25
893.921	-18.09
894.133	-18.78
894.346	-19.1
894.558	-19.69
894.771	-22.46
894.983	-20.72
895.195	-20.15
895.407	-19.06
895.62	-20.46
895.832	-18.93
896.044	-16.59
896.256	-17.86
896.468	-19.57
896.681	-17.71
896.893	-17.55
897.105	-17.31
897.317	-19.35
897.529	-17.16
897.741	-16.61
897.953	-14.08
898.165	-16.79
898.377	-20.98
898.589	-18.25
898.801	-19.86
899.013	-16.19
899.224	-12.6
899.436	-8.3
899.648	-9.63
899.86	-12.35
900.072	-9.9
900.283	-8.79
900.495	-7.92
900.707	-7.92
900.919	-11.11
901.13	-8.42
901.342	-8.77
901.554	-9.86
901.765	-9.02
901.977	-11.94
902.188	-13.82
902.4	-15.01
902.611	-17.4
902.823	-18.81
903.034	-21.79
903.246	-23.91
903.457	-24.36
903.669	-26.85
903.88	-26.18
904.091	-26.46
904.303	-26.32
904.514	-27.23
904.725	-24.94
904.936	-23.31
905.148	-24.11
905.359	-20.65
905.57	-22.15
905.781	-25.3
905.992	-27.44
906.204	-25.47
906.415	-25.25
906.626	-27.88
906.837	-25.1
907.048	-25.43
907.259	-25.27
907.47	-25.58
907.681	-27.54
907.892	-25.27
908.103	-25.79
908.314	-29
908.525	-25.99
908.735	-25.09
908.946	-26.29
909.157	-25.84
909.368	-23.13
909.579	-21.36
909.789	-21.51
910	-23.05
910.211	-19.41
910.421	-19.81
910.632	-19.76
910.843	-21
911.053	-18.43
911.264	-14.9
911.475	-14.61
911.685	-14.85
911.896	-16.22
912.106	-13.95
912.317	-16.35
912.527	-14.58
912.737	-16.61
912.948	-14.59
913.158	-13.35
913.369	-16.93
913.579	-14.71
913.789	-14.36
914	-10.88
914.21	-10.42
914.42	-11.62
914.63	-11.94
914.841	-9.9
915.051	-8.17
915.261	-6.44
915.471	-3.48
915.681	-2.81
915.891	-1.51
916.101	-3.16
916.311	-3.77
916.521	-2.13
916.731	-2.92
916.941	0.03
917.151	-0.78
917.361	0.98
917.571	-3.22
917.781	-6.02
917.991	-8.6
918.201	-7.59
918.411	-9.02
918.621	-11.12
918.83	-9.36
919.04	-11.2
919.25	-8.74
919.46	-8.24
919.669	-11.35
919.879	-10.98
920.089	-12.11
920.298	-13.06
920.508	-13.47
920.717	-12.88
920.927	-13.98
921.136	-13.27
921.346	-14.43
921.555	-17.29
921.765	-17.57
921.974	-19.43
922.184	-22.89
922.393	-24.09
922.603	-24.86
922.812	-21.96
923.021	-21.58
923.23	-23.5
923.44	-26.77
923.649	-26.08
923.858	-26.65
924.067	-26.49
924.277	-27.6
924.486	-25.08
924.695	-26.27
924.904	-24.82
925.113	-24.06
925.322	-23.33
925.531	-24.63
925.74	-27.89
925.949	-29.16
926.158	-26.87
926.367	-27.81
926.576	-27.11
926.785	-28.53
926.994	-30.33
927.203	-30.03
927.412	-29.35
927.621	-30.44
927.83	-28.74
928.038	-29.93
928.247	-30.94
928.456	-29.83
928.665	-28.05
928.873	-26.5
929.082	-24.27
929.291	-23.14
929.499	-22.5
929.708	-23.2
929.916	-21.82
930.125	-23.33
930.333	-24.27
930.542	-21.08
930.75	-18.9
930.959	-18.28
931.167	-18.09
931.376	-19.74
931.584	-19.1
931.793	-18.02
932.001	-17.85
932.209	-19.19
932.418	-22.11
932.626	-24.43
932.834	-25.23
933.042	-29.49
933.251	-27.81
933.459	-26.82
933.667	-26.67
933.875	-27.16
934.083	-25.14
934.291	-24.79
934.499	-23.48
934.707	-22.5
934.915	-23.66
935.123	-20.45
935.331	-21.48
935.539	-22.81
935.747	-24.96
935.955	-25.51
936.163	-24.86
936.371	-23.8
936.579	-22.15
936.787	-22.93
936.995	-24.76
937.202	-26.57
937.41	-26.32
937.618	-25.78
937.826	-23.46
938.033	-27.2
938.241	-29.88
938.449	-27.68
938.656	-24.15
938.864	-23.38
939.071	-21.96
939.279	-19.55
939.486	-16.93
939.694	-18.26
939.901	-19.12
940.109	-19.02
940.316	-18.66
940.524	-19.96
940.731	-21.53
940.939	-20.24
941.146	-21.29
941.353	-21.96
941.561	-23.41
941.768	-24.48
941.975	-22.65
942.182	-24.35
942.39	-23.89
942.597	-21.5
942.804	-23.3
943.011	-23.84
943.218	-22.2
943.425	-21.67
943.632	-21.96
943.839	-24.74
944.046	-27.07
944.253	-28.16
944.46	-26.93
944.667	-22.69
944.874	-22.12
945.081	-21.25
945.288	-19.19
945.495	-17.02
945.702	-16.37
945.909	-17.79
946.115	-16.11
946.322	-17.52
946.529	-19.72
946.736	-20.18
946.942	-18.49
947.149	-17.83
947.356	-19.88
947.562	-21.41
947.769	-20.44
947.976	-20.71
948.182	-18.81
948.389	-20.93
948.595	-19.63
948.802	-19.78
949.008	-21.02
949.215	-19.68
949.421	-20.41
949.628	-22.36
949.834	-23.46
950.04	-23.68
950.247	-18.57
950.453	-16.32
950.659	-16.61
950.865	-15.63
951.072	-20.88
951.278	-19.61
951.484	-20.55
951.69	-23.59
951.896	-25.57
952.103	-27.41
952.309	-25.32
952.515	-25.83
952.721	-22.22
952.927	-19.44
953.133	-20.92
953.339	-22.93
953.545	-21.98
953.751	-20.71
953.957	-17.49
954.163	-19.37
954.369	-19.67
954.574	-22.12
954.78	-22.6
954.986	-20.99
955.192	-18.95
955.398	-20.37
955.603	-22.87
955.809	-20.22
956.015	-18.64
956.22	-16.84
956.426	-15.27
956.632	-19.21
956.837	-18.68
957.043	-19.86
957.248	-18.54
957.454	-17.7
957.66	-20.64
957.865	-21.66
958.07	-20.44
958.276	-21.29
958.481	-22.88
958.687	-24.4
958.892	-23.83
959.097	-25.47
959.303	-26.22
959.508	-25.43
959.713	-25.62
959.919	-27.89
960.124	-28.61
960.329	-29.06
960.534	-25.38
960.739	-23.93
960.945	-22.02
961.15	-21.33
961.355	-22.48
961.56	-26.93
961.765	-27.41
961.97	-26.54
962.175	-25.63
962.38	-28.02
962.585	-29.51
962.79	-32.1
962.995	-32.54
963.2	-33.76
963.404	-32.26
963.609	-34.36
963.814	-34.89
964.019	-36.81
964.224	-38.85
964.428	-37.2
964.633	-36.06
964.838	-35.12
965.042	-34.99
965.247	-36.67
965.452	-36.07
965.656	-34.51
965.861	-34.24
966.066	-33.45
966.27	-30.07
966.475	-25.96
966.679	-29.73
966.884	-28.99
967.088	-31.15
967.292	-32.72
967.497	-31.48
967.701	-32.2
967.906	-29.62
968.11	-27.26
968.314	-24.34
968.518	-25.41
968.723	-22.9
968.927	-21.13
969.131	-18.31
969.335	-14.88
969.539	-15.32
969.744	-14.58
969.948	-11.93
970.152	-9.62
970.356	-7.5
970.56	-6.88
970.764	-7.46
970.968	-4.26
971.172	-2.62
971.376	-1.28
971.58	-0.76
971.784	-0.72
971.988	-3.69
972.192	-1.06
972.395	-2.11
972.599	-5.38
972.803	-7.8
973.007	-5
973.21	-5.45
973.414	-5.28
973.618	-5.05
973.822	-5.81
974.025	-5.42
974.229	-6.23
974.432	-9
974.636	-9.48
974.84	-9.18
975.043	-8.35
975.247	-9.18
975.45	-11.6
975.654	-11.1
975.857	-8.99
976.06	-9.65
976.264	-12.06
976.467	-11.76
976.671	-11.77
976.874	-9.52
977.077	-10.24
977.28	-12.99
977.484	-15.25
977.687	-16.16
977.89	-12.94
978.093	-12.79
978.297	-10.71
978.5	-13.3
978.703	-12.77
978.906	-11.79
979.109	-11.4
979.312	-10.06
979.515	-11.51
979.718	-11.28
979.921	-10.03
980.124	-11.53
980.327	-12.35
980.53	-12.11
980.733	-9.09
980.936	-8.68
981.138	-11.33
981.341	-10.49
981.544	-12.4
981.747	-13.04
981.949	-15.74
982.152	-15.29
982.355	-14.88
982.558	-11.11
982.76	-13.96
982.963	-14.17
983.165	-14.51
983.368	-14.62
983.571	-14.71
983.773	-10.65
983.976	-9.74
984.178	-9.53
984.381	-9.81
984.583	-12.52
984.785	-13.13
984.988	-10.07
985.19	-8.06
985.392	-11.2
985.595	-13.89
985.797	-14.39
985.999	-11.44
986.202	-10.24
986.404	-9.98
986.606	-6.87
986.808	-7.35
987.01	-5.83
987.212	-6.64
987.415	-7.21
987.617	-8.04
987.819	-7.24
988.021	-5.14
988.223	-5.2
988.425	-6.44
988.627	-7.7
988.829	-12.2
989.031	-9.27
989.232	-10.89
989.434	-9.22
989.636	-9.35
989.838	-9.17
990.04	-8.45
990.242	-10.05
990.443	-13.27
990.645	-12.06
990.847	-9.12
991.048	-7.99
991.25	-9.17
991.452	-9.93
991.653	-10.05
991.855	-10.3
992.057	-9.88
992.258	-11.69
992.46	-13.16
992.661	-12.1
992.863	-13.59
993.064	-13.04
993.265	-15.22
993.467	-16.39
993.668	-13.31
993.87	-13.43
994.071	-13.37
994.272	-14.1
994.473	-13.44
994.675	-12.45
994.876	-12.44
995.077	-12.05
995.278	-12.74
995.48	-12.1
995.681	-13.51
995.882	-11.76
996.083	-12.63
996.284	-18.17
996.485	-17.74
996.686	-19.23
996.887	-19.18
997.088	-22.7
997.289	-23.45
997.49	-23.59
997.691	-24.37
997.892	-23.71
998.092	-18.81
998.293	-20.26
998.494	-19.66
998.695	-20.41
998.896	-18.75
999.096	-19.16
999.297	-18.09
999.498	-20.76
999.698	-24.19
999.899	-27.23
1000.1	-29.79
1000.3	-29.93
1000.501	-29.11
1000.701	-29.28
1000.902	-30.56
1001.102	-29.54
1001.303	-27.85
1001.503	-28.79
1001.704	-28.5
1001.904	-30.1
1002.105	-30.62
1002.305	-29.88
1002.505	-28.89
1002.706	-29.56
1002.906	-28.06
1003.106	-30.33
1003.306	-29.34
1003.507	-27.38
1003.707	-28.55
1003.907	-25.57
1004.107	-24.32
1004.307	-26.92
1004.507	-24.06
1004.707	-23.77
1004.907	-24.18
1005.107	-23.96
1005.308	-22.7
1005.507	-25.19
1005.707	-20.56
1005.907	-18.93
1006.107	-15.78
1006.307	-13.68
1006.507	-14.12
1006.707	-14.58
1006.907	-13.27
1007.106	-13.1
1007.306	-14.81
1007.506	-14.11
1007.706	-14.81
1007.905	-14.92
1008.105	-14.81
1008.305	-15.58
1008.504	-14.45
1008.704	-10.03
1008.903	-9.08
1009.103	-7.49
1009.303	-8.92
1009.502	-7.73
1009.702	-9.38
1009.901	-8.95
1010.1	-13.51
1010.3	-11.12
1010.499	-13.01
1010.699	-15.32
1010.898	-18.16
1011.097	-17.4
1011.296	-18.06
1011.496	-20.44
1011.695	-20
1011.894	-23.83
1012.093	-20.11
1012.293	-20.63
1012.492	-21.14
1012.691	-20.84
1012.89	-20.58
1013.089	-24.07
1013.288	-23.46
1013.487	-21.65
1013.686	-22.56
1013.885	-23.48
1014.084	-23.48
1014.283	-22.91
1014.482	-23.64
1014.681	-24.33
1014.88	-29.75
1015.078	-27.52
1015.277	-30.44
1015.476	-29.42
1015.675	-29.33
1015.873	-27.8
1016.072	-30
1016.271	-26.18
1016.47	-30.29
1016.668	-27.56
1016.867	-27.02
1017.065	-28.16
1017.264	-29.71
1017.463	-30.11
1017.661	-29.57
1017.86	-29.69
1018.058	-27.17
1018.256	-30.17
1018.455	-31.71
1018.653	-29.54
1018.852	-28.67
1019.05	-30.97
1019.248	-32.23
1019.447	-33.62
1019.645	-34.96
1019.843	-35.22
1020.041	-33.36
1020.24	-33.66
1020.438	-28.78
1020.636	-27.77
1020.834	-30.51
1021.032	-26.76
1021.23	-29.35
1021.428	-25.98
1021.626	-22.61
1021.824	-23.55
1022.022	-25.28
1022.22	-22.84
1022.418	-22.56
1022.616	-23.28
1022.814	-24.55
1023.012	-25.28
1023.21	-21.68
1023.408	-21.69
1023.606	-23.34
1023.803	-18.19
1024.001	-17.91
1024.199	-22.71
1024.397	-21.26
1024.594	-21.44
1024.792	-25.57
1024.99	-25.17
1025.187	-23.96
1025.385	-18.49
1025.582	-17.59
1025.78	-17.61
1025.977	-17.39
1026.175	-16.24
1026.372	-16
1026.57	-20.35
1026.767	-18.5
1026.965	-17.17
1027.162	-16.84
1027.359	-18.15
1027.557	-18.98
1027.754	-22.08
1027.951	-21.83
1028.148	-20.31
1028.346	-22.11
1028.543	-24.69
1028.74	-24.37
1028.937	-27.54
1029.134	-26.94
1029.331	-28.37
1029.528	-27.23
1029.725	-26.95
1029.923	-31.3
1030.12	-27.12
1030.317	-23.93
1030.513	-22.85
1030.71	-21.27
1030.907	-18.73
1031.104	-19.12
1031.301	-20.63
1031.498	-21.52
1031.695	-22.69
1031.892	-23.02
1032.088	-22.94
1032.285	-25.56
1032.482	-26.8
1032.678	-29.25
1032.875	-32.33
1033.072	-31.92
1033.268	-32.72
1033.465	-31.4
1033.662	-33.71
1033.858	-34.33
1034.055	-35.47
1034.251	-32.87
1034.448	-32.87
1034.644	-32.28
1034.84	-30.4
1035.037	-27.98
1035.233	-28.74
1035.43	-26.4
1035.626	-27.24
1035.822	-26.44
1036.019	-26.4
1036.215	-30.79
1036.411	-31.83
1036.607	-31.95
1036.803	-35.28
1037	-35.21
1037.196	-37.14
1037.392	-37.44
1037.588	-39.61
1037.784	-37.82
1037.98	-38.06
1038.176	-38.34
1038.372	-39.17
1038.568	-36.55
1038.764	-33.8
1038.96	-30.78
1039.156	-32.45
1039.352	-34.29
1039.547	-33.48
1039.743	-32.75
1039.939	-29.94
1040.135	-29.23
1040.331	-30.44
1040.526	-28.81
1040.722	-30.05
1040.918	-29.66
1041.113	-32.03
1041.309	-31.13
1041.505	-34.99
1041.7	-33.17
1041.896	-32.67
1042.091	-32.76
1042.287	-31.42
1042.482	-30.15
1042.678	-31.71
1042.873	-29.71
1043.069	-30.73
1043.264	-29.46
1043.459	-27.42
1043.655	-26.28
1043.85	-27.71
1044.045	-26.07
1044.24	-25.92
1044.436	-22.29
1044.631	-23.95
1044.826	-25.09
1045.021	-28.22
1045.216	-25.49
