Data from FLMT021711__8__17-54-37-183.txt Node

Date: Tue Nov 05 17:54:37 CET 2024
User: Etudiants TP
Spectrometer: FLMT02171
Trigger mode: 0
Integration Time (sec): 1.000000E-1
Scans to average: 5
Electric dark correction enabled: true
Nonlinearity correction enabled: false
Boxcar width: 15
XAxis mode: Wavelengths
Number of Pixels in Spectrum: 3648
>>>>>Begin Spectral Data<<<<<
194.658	-62.19
194.923	-60.74
195.188	-54.68
195.453	-53.81
195.717	-49
195.982	-48.77
196.247	-47.13
196.512	-50.07
196.777	-47.16
197.042	-45.05
197.307	-44.77
197.572	-39.78
197.837	-39.58
198.101	-36.2
198.366	-33.19
198.631	-31.31
198.896	-25.28
199.161	-17.58
199.425	-10.44
199.69	-0.19
199.955	-0.38
200.22	-3.72
200.484	-3.89
200.749	-5.07
201.014	-2.49
201.278	-2.86
201.543	-2.41
201.807	-1.88
202.072	-0.45
202.337	-1.15
202.601	-1.87
202.866	-4.12
203.13	-2.6
203.395	-4.79
203.659	-4.01
203.924	-4.41
204.189	-2.82
204.453	-1.37
204.717	1.66
204.982	1.2
205.246	2.15
205.511	4.3
205.775	2.58
206.04	7.83
206.304	7.21
206.568	7.6
206.833	8.16
207.097	9.45
207.361	10.9
207.626	14.12
207.89	12.93
208.154	13.95
208.419	17.12
208.683	16.27
208.947	19.66
209.211	18.89
209.476	19.53
209.74	20.77
210.004	21.2
210.268	21.89
210.532	26.06
210.796	25.81
211.061	26.89
211.325	27.28
211.589	27.24
211.853	27.74
212.117	26.85
212.381	27.24
212.645	27.62
212.909	27.72
213.173	26.62
213.437	27.19
213.701	27.81
213.965	28.29
214.229	23.61
214.493	23.32
214.757	22.89
215.021	22.35
215.285	26.5
215.549	27.34
215.813	24.71
216.077	25.31
216.34	28.27
216.604	27.01
216.868	27.18
217.132	27.09
217.396	25.58
217.659	24.84
217.923	21.16
218.187	20.32
218.451	19.06
218.714	15.96
218.978	18.16
219.242	20.55
219.505	20.71
219.769	20.56
220.033	20.89
220.296	23.59
220.56	23.34
220.824	20.68
221.087	22.19
221.351	21.78
221.614	21.69
221.878	22.3
222.142	21.01
222.405	20.42
222.669	23.07
222.932	20.49
223.196	18.58
223.459	14.58
223.722	15.34
223.986	14.31
224.249	12.69
224.513	11.76
224.776	11.76
225.04	12.16
225.303	11.46
225.566	11.83
225.83	14.23
226.093	18.11
226.356	16.27
226.62	15.55
226.883	16.41
227.146	15.66
227.409	13.57
227.673	11.74
227.936	11.99
228.199	11.7
228.462	8.33
228.725	7.94
228.989	7.25
229.252	7.22
229.515	12.93
229.778	10.99
230.041	9.47
230.304	8.81
230.567	10.5
230.83	7.68
231.093	9.57
231.356	10.24
231.619	16.51
231.882	15.25
232.145	18.83
232.408	17.49
232.671	15.85
232.934	15.89
233.197	15.51
233.46	14.98
233.723	16.32
233.986	15.38
234.249	13.4
234.512	15.34
234.775	18.79
235.037	18.92
235.3	19.27
235.563	20.07
235.826	21.37
236.089	23.22
236.351	22.62
236.614	26.36
236.877	27.53
237.14	31.47
237.402	30.71
237.665	24.19
237.928	24.47
238.19	21.58
238.453	23.66
238.716	22.74
238.978	23.25
239.241	22.12
239.503	22.49
239.766	17.22
240.029	16.04
240.291	19.44
240.554	21.41
240.816	20.16
241.079	19.95
241.341	18.63
241.604	16.87
241.866	13.32
242.129	13.14
242.391	14.61
242.653	13.52
242.916	13.33
243.178	12.65
243.441	13.84
243.703	14.23
243.965	12.48
244.228	12.89
244.49	12.93
244.752	13.55
245.015	12.94
245.277	13.76
245.539	13.57
245.801	15.81
246.064	13.85
246.326	13.6
246.588	13.58
246.85	16.06
247.112	17.14
247.374	18.48
247.637	21.86
247.899	22
248.161	21.54
248.423	15.09
248.685	15.15
248.947	15.31
249.209	14.17
249.471	15.39
249.733	16.46
249.995	15.43
250.257	14.02
250.519	12.68
250.781	15.17
251.043	11.82
251.305	13.02
251.567	14.4
251.829	14.64
252.091	14.67
252.353	10.71
252.615	10.53
252.876	6.87
253.138	6.23
253.4	2.84
253.662	4.31
253.924	5.87
254.185	8.98
254.447	11.21
254.709	9.9
254.971	10.18
255.232	11.82
255.494	11.2
255.756	8.69
256.017	8.56
256.279	9.03
256.541	9.7
256.802	9.21
257.064	10.52
257.326	10.12
257.587	11.64
257.849	12.63
258.11	15.46
258.372	18.36
258.633	17.92
258.895	18.78
259.156	18.62
259.418	17.79
259.679	12.6
259.941	9.27
260.202	12.42
260.464	15.32
260.725	15.55
260.987	15.52
261.248	15.2
261.509	15.98
261.771	14.39
262.032	16.07
262.293	15.13
262.555	14.65
262.816	12.83
263.077	11.1
263.338	7.32
263.6	7.74
263.861	6.52
264.122	6.13
264.383	8.55
264.645	9.55
264.906	9.63
265.167	10.54
265.428	11.25
265.689	12.57
265.95	10.48
266.211	12.38
266.473	10.56
266.734	8.76
266.995	3.79
267.256	3.98
267.517	6.04
267.778	10.08
268.039	13.43
268.3	11.6
268.561	8.71
268.822	11.36
269.083	9.26
269.344	7.51
269.604	6.17
269.865	6.87
270.126	1.36
270.387	2.65
270.648	4.79
270.909	5.32
271.17	3.87
271.43	1
271.691	-2.19
271.952	-1.67
272.213	1.43
272.473	-0.79
272.734	1.75
272.995	2.23
273.256	1.9
273.516	3.98
273.777	1.53
274.038	3.27
274.298	0.67
274.559	-0.06
274.82	4.4
275.08	7.94
275.341	10.22
275.601	8.41
275.862	5.66
276.122	5.4
276.383	5.43
276.643	7.69
276.904	6.22
277.164	10.33
277.425	10.59
277.685	15.09
277.946	14.48
278.206	17.33
278.467	17.98
278.727	17.41
278.987	16.25
279.248	16.87
279.508	18.89
279.768	21.71
280.029	22.39
280.289	18.67
280.549	17.81
280.81	15.69
281.07	15.16
281.33	16.79
281.59	15.39
281.851	16.68
282.111	16.17
282.371	15.41
282.631	17.53
282.891	16.82
283.151	15.07
283.412	13.01
283.672	12.84
283.932	13.51
284.192	14.02
284.452	12.32
284.712	10.21
284.972	8.12
285.232	5.8
285.492	9.4
285.752	7.6
286.012	12.17
286.272	13.66
286.532	9.8
286.792	9.23
287.052	13.01
287.312	12.32
287.571	11.68
287.831	12
288.091	9.71
288.351	9.58
288.611	13.98
288.871	14.51
289.13	14.2
289.39	10.52
289.65	10.54
289.91	6.96
290.17	9.93
290.429	13.08
290.689	9.36
290.949	5.36
291.208	7.68
291.468	9.78
291.728	10.04
291.987	11.13
292.247	9.07
292.506	12.06
292.766	14.61
293.026	14.31
293.285	14.96
293.545	17.28
293.804	15.35
294.064	12.23
294.323	8.54
294.583	11.11
294.842	11.31
295.102	10.86
295.361	12.4
295.621	12.94
295.88	12.47
296.139	12.72
296.399	13.89
296.658	7.92
296.917	7.34
297.177	3.61
297.436	5.44
297.695	3.29
297.955	5.45
298.214	3.79
298.473	4.79
298.732	8.66
298.992	11.63
299.251	9.57
299.51	6.72
299.769	9.02
300.028	9.53
300.287	9.47
300.547	9.33
300.806	7.93
301.065	12.11
301.324	12.49
301.583	7.47
301.842	4.25
302.101	3.91
302.36	6.27
302.619	4.99
302.878	5.44
303.137	3.72
303.396	5.25
303.655	7.61
303.914	4.55
304.173	5.63
304.432	4.94
304.691	8.5
304.95	6.57
305.208	13.05
305.467	13.48
305.726	14.3
305.985	16.17
306.244	16.34
306.503	15.51
306.761	13.07
307.02	9.92
307.279	11.19
307.537	12.69
307.796	9.55
308.055	6.9
308.314	8.9
308.572	6.42
308.831	7.07
309.09	5.99
309.348	8.17
309.607	8.25
309.865	11.99
310.124	11.16
310.382	10.17
310.641	12.03
310.9	10.68
311.158	11.81
311.417	10.19
311.675	10.97
311.933	12.71
312.192	13.16
312.45	12.36
312.709	12.16
312.967	11
313.226	10.58
313.484	9.61
313.742	7.75
314.001	4.92
314.259	3.9
314.517	4.13
314.776	6.68
315.034	10.33
315.292	8.46
315.55	7.07
315.809	5.66
316.067	6.86
316.325	4.79
316.583	6.43
316.841	4.74
317.1	3.89
317.358	0.29
317.616	-0.19
317.874	0.61
318.132	0.2
318.39	1.4
318.648	0.06
318.906	-0.92
319.164	-2.15
319.422	-2.52
319.68	-5.61
319.938	-5.3
320.196	-4.89
320.454	-3.59
320.712	-3.46
320.97	-1.05
321.228	-3.56
321.486	-2
321.744	0.32
322.002	2.78
322.26	1.58
322.517	1.01
322.775	-2.32
323.033	-4.21
323.291	-2.94
323.549	-1.06
323.806	1.95
324.064	1.89
324.322	3.79
324.58	3.09
324.837	5.61
325.095	2.67
325.353	4.29
325.61	6.95
325.868	5.6
326.126	6.44
326.383	5.25
326.641	5.24
326.898	7.44
327.156	7.48
327.413	8.45
327.671	9.65
327.928	12.32
328.186	12.07
328.443	12.07
328.701	14.89
328.958	14.27
329.216	14.13
329.473	13.53
329.731	12.23
329.988	12.12
330.245	15.47
330.503	17.05
330.76	18.54
331.017	20.57
331.275	18.62
331.532	17.55
331.789	14.75
332.047	15.48
332.304	12.29
332.561	12.03
332.818	11.17
333.076	14.35
333.333	15.13
333.59	14.14
333.847	15.32
334.104	14.53
334.361	13.11
334.618	11.43
334.876	9.55
335.133	9.5
335.39	6.95
335.647	6.31
335.904	3.09
336.161	1.06
336.418	0.75
336.675	-2.48
336.932	-0.74
337.189	-0.36
337.446	-0.75
337.703	-1.11
337.96	-4.83
338.216	-6.19
338.473	-9.11
338.73	-9.35
338.987	-9.91
339.244	-6.44
339.501	-8.49
339.757	-7.39
340.014	-7.43
340.271	-5.05
340.528	-3.44
340.785	-0.33
341.041	-0.27
341.298	-2.31
341.555	-2.79
341.811	-2.58
342.068	-4.34
342.325	-4.14
342.581	-0.51
342.838	0.77
343.094	1.41
343.351	2.34
343.608	1.28
343.864	2.07
344.121	3.25
344.377	1.41
344.634	1.01
344.89	-0.79
345.147	-2.04
345.403	-2.93
345.66	-2.9
345.916	-1.83
346.172	-3
346.429	-3.78
346.685	-5.23
346.942	-5.93
347.198	-9.07
347.454	-8.12
347.711	-7.9
347.967	-11.3
348.223	-11.1
348.48	-12.17
348.736	-9.04
348.992	-9.57
349.248	-7.14
349.504	-6.74
349.761	-7.47
350.017	-7.35
350.273	-7.04
350.529	-8.56
350.785	-9.27
351.041	-10.91
351.297	-10.07
351.554	-11.13
351.81	-13.15
352.066	-14.3
352.322	-12.65
352.578	-11.53
352.834	-11.4
353.09	-10.82
353.346	-9.8
353.602	-9.76
353.858	-9.9
354.114	-10.43
354.369	-8.64
354.625	-5.22
354.881	-5.71
355.137	-3.52
355.393	-2.08
355.649	-1.23
355.905	-0.16
356.16	-0.01
356.416	0.92
356.672	-5.66
356.928	-5.92
357.183	-8.25
357.439	-7.56
357.695	-9.07
357.951	-3.98
358.206	-2.66
358.462	-2.94
358.718	-4.96
358.973	-3.45
359.229	-4.22
359.484	-2.68
359.74	0.36
359.996	1.01
360.251	3.82
360.507	3.43
360.762	2.77
361.018	4.9
361.273	2.13
361.529	3
361.784	2.89
362.04	4.41
362.295	3.33
362.55	1.38
362.806	4.03
363.061	3.98
363.316	3.47
363.572	3.63
363.827	5.49
364.082	3.03
364.338	3.33
364.593	3.42
364.848	4.04
365.104	4.13
365.359	6.82
365.614	8.21
365.869	5.6
366.124	5.15
366.38	3.48
366.635	6.03
366.89	8.07
367.145	8.28
367.4	11.52
367.655	11.63
367.91	12.21
368.165	10.4
368.42	6.92
368.675	8.06
368.93	9.13
369.185	7.57
369.44	8.66
369.695	10.42
369.95	10.1
370.205	10.62
370.46	10.67
370.715	8.27
370.97	9.52
371.225	10.1
371.48	10.84
371.734	11.4
371.989	12.56
372.244	11.2
372.499	13.71
372.754	11.93
373.008	10.15
373.263	4.06
373.518	6.23
373.773	3.99
374.027	3.26
374.282	5.19
374.537	4.64
374.791	4.56
375.046	5.26
375.301	1.97
375.555	0.14
375.81	2.01
376.064	3.39
376.319	7.56
376.573	6.58
376.828	2.08
377.082	6.28
377.337	3.93
377.591	3.11
377.846	3.42
378.1	4.77
378.355	4.68
378.609	5.83
378.863	2.43
379.118	3.93
379.372	2.83
379.627	1.1
379.881	0.29
380.135	0.19
380.389	-2.32
380.644	-0.27
380.898	0.86
381.152	3.07
381.407	2.46
381.661	6.34
381.915	8.64
382.169	10.12
382.423	9.46
382.677	5.99
382.932	5.87
383.186	8.72
383.44	9.63
383.694	10.4
383.948	7.89
384.202	5.37
384.456	6.62
384.71	9.2
384.964	7.46
385.218	9.64
385.472	9.52
385.726	9.97
385.98	10.27
386.234	10.23
386.488	7.28
386.742	9.01
386.996	6.69
387.249	7.49
387.503	9.22
387.757	9.54
388.011	12.31
388.265	14.36
388.518	15.22
388.772	16.73
389.026	17.67
389.28	15.57
389.533	13.98
389.787	15.52
390.041	13.26
390.295	13.31
390.548	12.72
390.802	14.95
391.055	12.85
391.309	11.83
391.563	9.75
391.816	10.99
392.07	10.61
392.323	12.76
392.577	12.73
392.83	14.36
393.084	19.31
393.337	21.86
393.591	21.27
393.844	20.89
394.098	24.48
394.351	28.48
394.604	29.86
394.858	31.15
395.111	30.88
395.364	29.35
395.618	31.77
395.871	27.95
396.124	27.27
396.378	25.38
396.631	25.75
396.884	22.9
397.137	22.57
397.391	23.32
397.644	20.18
397.897	20.46
398.15	21.54
398.403	25.22
398.657	23.64
398.91	23.64
399.163	25.15
399.416	24.29
399.669	21.61
399.922	20.94
400.175	18.43
400.428	17.75
400.681	17.81
400.934	11.37
401.187	11.05
401.44	11.44
401.693	10.12
401.946	7.84
402.199	2.44
402.452	1.34
402.704	-2.69
402.957	-3.41
403.21	-1.67
403.463	-3.45
403.716	-2.05
403.969	-2.07
404.221	-3.09
404.474	-2.05
404.727	2.35
404.98	3.91
405.232	3.22
405.485	3.73
405.738	5.93
405.99	6.32
406.243	7.68
406.496	8.83
406.748	8.1
407.001	7.25
407.253	8.79
407.506	9.75
407.759	11.94
408.011	9.14
408.264	9.27
408.516	9.76
408.769	9.55
409.021	10.6
409.274	10.84
409.526	13.27
409.778	12.92
410.031	16.38
410.283	15.67
410.536	21.51
410.788	19.91
411.04	19.26
411.293	20.43
411.545	21.81
411.797	21.37
412.049	22.24
412.302	22.48
412.554	22.56
412.806	22.26
413.058	20.3
413.311	21.63
413.563	20.69
413.815	20.9
414.067	19.08
414.319	19.1
414.571	19.82
414.823	18.45
415.075	17.12
415.328	18.32
415.58	20.23
415.832	22.97
416.084	24.45
416.336	23.13
416.588	27.01
416.84	24.72
417.091	26.05
417.343	21.73
417.595	22.47
417.847	23.07
418.099	24.7
418.351	23.59
418.603	26.51
418.855	26.97
419.106	28.49
419.358	27.53
419.61	27.67
419.862	28.3
420.114	27.12
420.365	27.19
420.617	27.91
420.869	27.55
421.12	27.1
421.372	27.55
421.624	26.02
421.875	26.54
422.127	23.77
422.379	24.03
422.63	26.97
422.882	25.82
423.133	25.88
423.385	24.7
423.636	25.8
423.888	27.55
424.139	29.6
424.391	27.08
424.642	24.47
424.894	21.95
425.145	22.63
425.396	20.2
425.648	23.24
425.899	21.24
426.151	21
426.402	19.23
426.653	19.48
426.905	16.79
427.156	14.49
427.407	14.27
427.658	12.88
427.91	10.27
428.161	8.71
428.412	9.9
428.663	10.74
428.914	11.26
429.166	11.86
429.417	13.37
429.668	10.87
429.919	8.68
430.17	8.44
430.421	8.35
430.672	11.28
430.923	11.61
431.174	10.12
431.425	9.83
431.676	8.52
431.927	5.14
432.178	6.85
432.429	8.28
432.68	9.31
432.931	12.39
433.182	15.25
433.433	12.53
433.683	14.38
433.934	13.75
434.185	13.2
434.436	12
434.687	13.63
434.937	15.53
435.188	14.26
435.439	14.02
435.69	15.84
435.94	15.1
436.191	14.19
436.442	14.1
436.692	12.47
436.943	10.14
437.194	8.7
437.444	10.52
437.695	15
437.945	15.42
438.196	13.36
438.447	13.08
438.697	13.58
438.948	13.53
439.198	10.45
439.449	6.75
439.699	7.2
439.949	6.2
440.2	6.16
440.45	7.51
440.701	6.17
440.951	4.48
441.201	3.11
441.452	1.62
441.702	1.21
441.952	2.9
442.203	3.02
442.453	0.52
442.703	1.93
442.953	2.83
443.204	5.61
443.454	3.28
443.704	4.08
443.954	1.86
444.204	2.39
444.455	4.22
444.705	5.5
444.955	5.58
445.205	4.59
445.455	2.29
445.705	2.86
445.955	4.39
446.205	3.59
446.455	3.1
446.705	4.2
446.955	5.14
447.205	6.48
447.455	8.68
447.705	6.38
447.955	5.56
448.205	6.71
448.454	6.08
448.704	7.6
448.954	6.71
449.204	7.25
449.454	7.94
449.704	7.12
449.953	6.58
450.203	9.01
450.453	7.72
450.703	9.04
450.952	6.86
451.202	9.05
451.452	7.9
451.701	11.21
451.951	14.38
452.201	13.16
452.45	12.89
452.7	14.81
452.949	15.25
453.199	15.09
453.448	16.81
453.698	16.11
453.947	15.42
454.197	15.83
454.446	15.16
454.696	18.08
454.945	19.08
455.195	16.45
455.444	19.18
455.693	24.1
455.943	20.85
456.192	22.55
456.442	22.11
456.691	23.06
456.94	23.52
457.189	22.1
457.439	22.35
457.688	24.41
457.937	25.25
458.186	25.5
458.436	27.08
458.685	28.18
458.934	27.19
459.183	27.36
459.432	28.75
459.681	28.91
459.93	27.95
460.179	27.01
460.429	25.11
460.678	29.28
460.927	32.05
461.176	30.53
461.425	30.56
461.674	32.72
461.923	30.37
462.172	28.91
462.42	27.92
462.669	29.93
462.918	31.24
463.167	30.28
463.416	26.96
463.665	27.62
463.914	28.17
464.162	27.84
464.411	30.22
464.66	31.67
464.909	30.96
465.158	31.82
465.406	31.18
465.655	31.59
465.904	32.04
466.152	30.48
466.401	30.57
466.65	32.96
466.898	31.01
467.147	26.78
467.395	25.14
467.644	27.81
467.893	27.92
468.141	27.23
468.39	22.7
468.638	19.73
468.887	18.26
469.135	18.62
469.384	18.26
469.632	20.05
469.88	21.81
470.129	22.69
470.377	19.06
470.626	21.76
470.874	23.61
471.122	24.78
471.371	23.24
471.619	20.95
471.867	23.44
472.115	21.3
472.364	18.86
472.612	22.39
472.86	20.17
473.108	21.37
473.356	21.35
473.605	21.35
473.853	19.23
474.101	19.21
474.349	16.35
474.597	20.89
474.845	20.34
475.093	20.12
475.341	17.08
475.589	16.96
475.837	17.84
476.085	20.65
476.333	19.87
476.581	21.73
476.829	20.85
477.077	22.59
477.325	23.24
477.573	24.04
477.821	22.53
478.069	23.66
478.317	23.35
478.564	24.62
478.812	22.72
479.06	23.15
479.308	22.78
479.555	22.44
479.803	21.34
480.051	23.28
480.299	22.67
480.546	25.11
480.794	22.7
481.042	22.53
481.289	21.55
481.537	23.32
481.784	22.62
482.032	26.52
482.28	25.41
482.527	24.97
482.775	24.81
483.022	26.45
483.27	28.01
483.517	32.12
483.765	30.38
484.012	31.15
484.259	28.73
484.507	29.94
484.754	30.63
485.002	29.77
485.249	28.49
485.496	30.85
485.744	30.67
485.991	29.77
486.238	27.7
486.486	31.08
486.733	32.38
486.98	35.06
487.227	33.17
487.474	36.04
487.722	36.99
487.969	34.55
488.216	34.32
488.463	35.26
488.71	33.46
488.957	32.95
489.204	32.3
489.451	33.32
489.699	32.54
489.946	30.08
490.193	30.89
490.44	32.38
490.687	33.11
490.934	31.54
491.18	28.17
491.427	30.11
491.674	33.19
491.921	34.31
492.168	34.29
492.415	32.3
492.662	34.43
492.909	37.03
493.155	37.7
493.402	36.98
493.649	35.05
493.896	37.39
494.142	35.09
494.389	34.97
494.636	33.91
494.883	32.77
495.129	31.07
495.376	30.91
495.623	33.57
495.869	35.46
496.116	36.56
496.362	40.08
496.609	44.28
496.855	50.29
497.102	50.68
497.348	50.37
497.595	53.09
497.841	57.25
498.088	55.32
498.334	56.21
498.581	55.5
498.827	55.61
499.074	57.76
499.32	59.75
499.566	64.44
499.813	66.61
500.059	66.19
500.305	66.27
500.552	65.57
500.798	63.94
501.044	68.73
501.29	69.65
501.537	67.67
501.783	69.8
502.029	73.25
502.275	72.07
502.521	71.99
502.767	75.24
503.013	79.21
503.26	78.08
503.506	75.77
503.752	77.91
503.998	75.7
504.244	75.67
504.49	74.32
504.736	75.72
504.982	76.24
505.228	78.14
505.474	79.51
505.72	82.1
505.966	80.74
506.211	85.57
506.457	88.55
506.703	84.37
506.949	82.89
507.195	81.53
507.441	79.63
507.686	82.56
507.932	83.12
508.178	85.49
508.424	85.57
508.669	84.31
508.915	85.5
509.161	89.55
509.406	91.94
509.652	91.34
509.898	96.64
510.143	99.74
510.389	99.88
510.634	96.5
510.88	100.71
511.125	105.5
511.371	107.26
511.616	109.27
511.862	108.69
512.107	106.62
512.353	110.82
512.598	113.12
512.844	112.7
513.089	111.89
513.335	114.18
513.58	116.22
513.825	117.04
514.071	116.9
514.316	118.83
514.561	120.25
514.806	120.54
515.052	124.87
515.297	124.66
515.542	128.04
515.787	130.17
516.033	133.78
516.278	135.64
516.523	137.24
516.768	137.35
517.013	136.51
517.258	138.99
517.503	139.83
517.748	142.19
517.993	142.38
518.238	143.83
518.483	144.85
518.728	144.48
518.973	143.86
519.218	146.49
519.463	148.24
519.708	149.97
519.953	147.74
520.198	148.35
520.443	152.66
520.688	156.18
520.933	156.49
521.177	158.5
521.422	157.99
521.667	162.21
521.912	165.11
522.157	164.52
522.401	168.14
522.646	168.36
522.891	170.94
523.135	171.75
523.38	173.79
523.625	173.85
523.869	177.24
524.114	180.17
524.358	179.86
524.603	181.34
524.848	179.31
525.092	178.7
525.337	181.38
525.581	184.27
525.826	187.3
526.07	188.47
526.315	190.75
526.559	191.71
526.803	190.35
527.048	195.33
527.292	196.69
527.537	199.44
527.781	200.99
528.025	199.55
528.269	202.61
528.514	203.74
528.758	203.36
529.002	205.57
529.247	208.58
529.491	208.43
529.735	212.69
529.979	214.32
530.223	217.17
530.467	214.76
530.712	213.43
530.956	213.05
531.2	215.06
531.444	213.08
531.688	214.28
531.932	215.4
532.176	216.67
532.42	219.56
532.664	222.3
532.908	220.94
533.152	220.61
533.396	220.44
533.64	219.61
533.884	219.94
534.128	220.01
534.371	221.6
534.615	223.37
534.859	222.64
535.103	221.16
535.347	221.61
535.59	222.28
535.834	218.85
536.078	221.54
536.322	224.48
536.565	228.02
536.809	226.55
537.053	229.44
537.296	228.87
537.54	228.88
537.784	227.89
538.027	231.97
538.271	232.91
538.514	231.98
538.758	233.04
539.001	234.15
539.245	235.33
539.488	235.7
539.732	238.08
539.975	239.31
540.219	242.16
540.462	242.75
540.706	244.7
540.949	245.66
541.192	247.33
541.436	252
541.679	256.27
541.922	258.22
542.166	253.72
542.409	256.3
542.652	257.98
542.895	259.69
543.139	261.42
543.382	266.14
543.625	265.93
543.868	265.81
544.111	264.45
544.354	264.28
544.598	261.61
544.841	263.12
545.084	262.23
545.327	262.83
545.57	264.43
545.813	267.17
546.056	267.18
546.299	267.08
546.542	268.48
546.785	270.78
547.028	273.13
547.271	272.36
547.514	272.9
547.756	270.4
547.999	271.35
548.242	274.09
548.485	273.04
548.728	274.23
548.971	269.26
549.213	271.64
549.456	271.6
549.699	274.1
549.942	275.83
550.184	276.12
550.427	276.06
550.67	277.95
550.912	275.26
551.155	277.47
551.398	276.64
551.64	276.91
551.883	277.13
552.125	279.44
552.368	280.11
552.61	280
552.853	281.8
553.095	280.15
553.338	280.29
553.58	284
553.823	283.91
554.065	287.41
554.308	284.93
554.55	283.92
554.792	282.7
555.035	282.68
555.277	281.51
555.519	283.82
555.762	280.2
556.004	281.33
556.246	279.03
556.488	281.58
556.731	278.4
556.973	281.37
557.215	279.87
557.457	280.23
557.699	284
557.941	283.69
558.183	283.76
558.426	286.39
558.668	283.65
558.91	287.46
559.152	289.06
559.394	289.57
559.636	291.8
559.878	292.49
560.12	291.98
560.362	294.39
560.604	296.2
560.845	296.02
561.087	294.61
561.329	298.38
561.571	296.83
561.813	298.09
562.055	298.89
562.297	300.69
562.538	301.95
562.78	307.25
563.022	304.46
563.264	307.56
563.505	308.34
563.747	309.84
563.989	310
564.23	311.45
564.472	311.35
564.714	316.56
564.955	317.38
565.197	315.75
565.438	317.61
565.68	322.83
565.921	321.8
566.163	325.44
566.404	325.15
566.646	329.76
566.887	334.25
567.129	337.07
567.37	338.76
567.612	343.42
567.853	343.61
568.094	346.23
568.336	348.29
568.577	351.88
568.818	352.44
569.06	352.37
569.301	351.99
569.542	354.15
569.783	358.93
570.025	360.45
570.266	362.56
570.507	366.3
570.748	368.15
570.989	371.84
571.23	375.22
571.472	376.38
571.713	376.01
571.954	378
572.195	377.78
572.436	382.91
572.677	386.05
572.918	389.56
573.159	385.93
573.4	385.14
573.641	385.44
573.882	387.35
574.123	384.7
574.364	380.56
574.604	381.2
574.845	379.88
575.086	381.1
575.327	381.88
575.568	381.17
575.809	381.57
576.049	380.05
576.29	378.65
576.531	383.01
576.771	387.95
577.012	391.17
577.253	390.75
577.494	392.03
577.734	391.82
577.975	393.19
578.215	394.01
578.456	393.09
578.697	393.72
578.937	396.92
579.178	399
579.418	397.33
579.659	396.13
579.899	392.33
580.14	392.36
580.38	392.56
580.62	393.08
580.861	398.58
581.101	398.84
581.342	398.76
581.582	395.47
581.822	398.4
582.063	398.63
582.303	401.13
582.543	400.87
582.783	401.72
583.024	405.43
583.264	408.48
583.504	408.19
583.744	411.33
583.984	408.84
584.224	409
584.465	407.48
584.705	408.94
584.945	410.39
585.185	409.58
585.425	410.9
585.665	411.13
585.905	411.99
586.145	414.29
586.385	412.58
586.625	414.78
586.865	415.47
587.105	416.97
587.345	417.77
587.585	417.98
587.824	417.14
588.064	420.39
588.304	417.48
588.544	417.31
588.784	417.95
589.024	420.83
589.263	421.75
589.503	420.46
589.743	423.96
589.982	423.68
590.222	424.73
590.462	422.16
590.701	420.6
590.941	424.8
591.181	424.12
591.42	424.64
591.66	428
591.899	431.16
592.139	430.5
592.378	431.48
592.618	431.8
592.857	432.02
593.097	433.37
593.336	434.89
593.576	434.25
593.815	435.52
594.055	436.99
594.294	439.18
594.533	439.53
594.773	442.44
595.012	446
595.251	448.21
595.491	449.89
595.73	454.33
595.969	457.28
596.208	458.66
596.447	464.94
596.687	466.55
596.926	469.1
597.165	467.22
597.404	470.47
597.643	469.21
597.882	470.94
598.121	474.28
598.36	475.01
598.599	477.98
598.838	479.9
599.077	477.06
599.316	478.15
599.555	479.64
599.794	480.91
600.033	485.22
600.272	487.5
600.511	486.57
600.75	489.22
600.989	492.72
601.228	493.89
601.466	493.77
601.705	495.55
601.944	496.96
602.183	498.18
602.422	497.37
602.66	496.94
602.899	497.19
603.138	497.53
603.376	496.75
603.615	498.27
603.854	496.25
604.092	496.17
604.331	497.3
604.569	497.21
604.808	495.44
605.047	498.83
605.285	496.78
605.524	495.4
605.762	492.98
606	492.29
606.239	493.09
606.477	492.57
606.716	486.2
606.954	483.46
607.193	480.06
607.431	474.28
607.669	470.82
607.908	469.84
608.146	468.69
608.384	466.4
608.622	465.37
608.861	463.48
609.099	461.5
609.337	459.58
609.575	457.94
609.813	457.63
610.052	455.97
610.29	448.29
610.528	443.75
610.766	441.69
611.004	439.89
611.242	437.27
611.48	435.85
611.718	431.55
611.956	430.65
612.194	429.3
612.432	425.28
612.67	424.04
612.908	422.76
613.146	420.7
613.384	419.29
613.621	416.95
613.859	416.9
614.097	417.75
614.335	417.42
614.573	416.19
614.811	417.09
615.048	416.37
615.286	415.16
615.524	413.28
615.761	409.23
615.999	407.57
616.237	406.07
616.474	406.04
616.712	404.9
616.95	401.06
617.187	398.1
617.425	397.71
617.662	399.78
617.9	397.99
618.137	394.35
618.375	391.33
618.612	387.63
618.85	388.2
619.087	390.21
619.325	388.38
619.562	383.9
619.799	381.83
620.037	380.71
620.274	378.79
620.511	378.09
620.749	374.27
620.986	370.9
621.223	366.8
621.461	365.47
621.698	366.45
621.935	366.06
622.172	362.03
622.409	362.4
622.647	361.26
622.884	357.7
623.121	357.52
623.358	355.19
623.595	354.08
623.832	353.51
624.069	352.4
624.306	353.18
624.543	353.14
624.78	352.58
625.017	350.96
625.254	352.58
625.491	354.72
625.728	356.15
625.965	356.89
626.202	353.1
626.438	350.36
626.675	348.82
626.912	352.32
627.149	351.46
627.386	349.98
627.622	348.8
627.859	347.86
628.096	347.69
628.333	347.05
628.569	346.47
628.806	347.65
629.043	345.89
629.279	345.6
629.516	348.39
629.752	343.5
629.989	343.21
630.225	340.25
630.462	339.59
630.699	337.88
630.935	335.01
631.171	330.07
631.408	328.08
631.644	324.41
631.881	320.39
632.117	316.81
632.354	316.59
632.59	313.95
632.826	312.51
633.063	310.29
633.299	309.56
633.535	306.95
633.771	304.3
634.008	305.04
634.244	303.02
634.48	300.93
634.716	301.87
634.953	300
635.189	299.28
635.425	299.69
635.661	301.89
635.897	299.37
636.133	297.26
636.369	294.05
636.605	287.91
636.841	283.57
637.077	283.29
637.313	282.36
637.549	282.01
637.785	279.66
638.021	278.72
638.257	277.71
638.493	279.78
638.729	278.45
638.965	280.04
639.2	280.26
639.436	278.71
639.672	277.47
639.908	273.99
640.144	276.29
640.379	277.72
640.615	274.42
640.851	276.17
641.086	277.32
641.322	273.48
641.558	271.87
641.793	273.34
642.029	269.53
642.264	267.14
642.5	265.82
642.736	260.23
642.971	259.27
643.207	257.29
643.442	254.26
643.678	254.79
643.913	256.61
644.148	256.9
644.384	258.4
644.619	254.83
644.855	255.24
645.09	254.78
645.325	256.13
645.561	255.75
645.796	251.68
646.031	253.42
646.266	250.12
646.502	248.59
646.737	249.46
646.972	247.75
647.207	247.66
647.442	243.39
647.678	238.29
647.913	239.14
648.148	239.21
648.383	236.95
648.618	237.51
648.853	236.72
649.088	236.65
649.323	238.12
649.558	237.57
649.793	237.68
650.028	238.63
650.263	233.42
650.498	234.29
650.733	233.13
650.968	230.11
651.202	230.18
651.437	225.72
651.672	221.5
651.907	220.56
652.142	221.21
652.376	220.83
652.611	219.77
652.846	220.79
653.081	218.94
653.315	215.58
653.55	213.76
653.785	210.42
654.019	211.17
654.254	209.9
654.488	209.29
654.723	205.73
654.958	203.56
655.192	200.93
655.427	196.13
655.661	195.1
655.896	195.83
656.13	197.39
656.364	193.12
656.599	188.8
656.833	196.2
657.068	195.33
657.302	194.08
657.536	192.06
657.771	191.98
658.005	192.13
658.239	191.68
658.474	187.5
658.708	187.76
658.942	187.17
659.176	185.47
659.41	180.07
659.645	178.09
659.879	176.31
660.113	171.08
660.347	170.34
660.581	168.18
660.815	167.92
661.049	166.74
661.283	161.69
661.517	158.44
661.751	156.08
661.985	155.27
662.219	155.72
662.453	154.46
662.687	155.84
662.921	152.31
663.155	150.5
663.389	142.18
663.622	138.62
663.856	140.59
664.09	130.5
664.324	129.14
664.558	128.92
664.791	127.23
665.025	126.37
665.259	125.36
665.492	123.81
665.726	126.12
665.96	126.27
666.193	124.23
666.427	125.44
666.661	125.02
666.894	123.35
667.128	121.09
667.361	122.44
667.595	121.08
667.828	119.54
668.062	118.77
668.295	119.03
668.529	119.62
668.762	119.59
668.995	119.82
669.229	121.54
669.462	121.02
669.695	120.34
669.929	116.96
670.162	117.34
670.395	113.98
670.629	115.16
670.862	118.28
671.095	114.52
671.328	115.03
671.561	111.38
671.795	111.24
672.028	112.06
672.261	112.34
672.494	112.31
672.727	110.82
672.96	111.55
673.193	109.19
673.426	111.93
673.659	111.28
673.892	111.57
674.125	110.68
674.358	110.52
674.591	108.78
674.824	107.76
675.057	107.36
675.29	104.15
675.523	104.54
675.755	101.95
675.988	102.34
676.221	103.53
676.454	101.09
676.687	101.2
676.919	100.27
677.152	100.35
677.385	98.65
677.617	98.71
677.85	100.53
678.083	98.68
678.315	100.64
678.548	98.84
678.78	97.48
679.013	94.88
679.246	95.46
679.478	95.05
679.711	91.61
679.943	93.25
680.175	89.87
680.408	93.42
680.64	88.48
680.873	88.23
681.105	87.78
681.338	89.07
681.57	87.01
681.802	87.74
682.034	86.85
682.267	90.38
682.499	92.18
682.731	89.77
682.964	88.95
683.196	85.71
683.428	82.9
683.66	81.14
683.892	83.16
684.124	85.37
684.356	86.18
684.589	86.05
684.821	84.98
685.053	83.71
685.285	81.8
685.517	81.6
685.749	82.23
685.981	84.05
686.213	85.19
686.445	85.15
686.676	81.03
686.908	82.18
687.14	79.31
687.372	79.02
687.604	75.15
687.836	76.85
688.068	75.69
688.299	74.58
688.531	71.52
688.763	76.09
688.995	73.35
689.226	76.24
689.458	72.03
689.69	69.82
689.921	68.86
690.153	69.27
690.384	70.98
690.616	70.73
690.848	72.11
691.079	68.51
691.311	64.71
691.542	62.84
691.774	61.02
692.005	62.64
692.237	64.74
692.468	64.36
692.699	62.65
692.931	60.64
693.162	57.48
693.393	55.76
693.625	52.33
693.856	54.16
694.087	53.35
694.319	54.09
694.55	53.48
694.781	50.62
695.012	50.6
695.243	49.24
695.475	48.36
695.706	49.41
695.937	47.51
696.168	47.5
696.399	44.62
696.63	43.41
696.861	44.42
697.092	49.55
697.323	51.91
697.554	53.05
697.785	52.24
698.016	50.53
698.247	49.19
698.478	50.63
698.709	50.88
698.94	53.01
699.171	52.03
699.401	46.73
699.632	48.81
699.863	46.17
700.094	45.9
700.325	48.39
700.555	49.26
700.786	52.06
701.017	50.54
701.247	49.83
701.478	51.04
701.709	51.87
701.939	53.31
702.17	53.48
702.401	54.28
702.631	54.16
702.862	52.02
703.092	47.18
703.323	49.23
703.553	50.6
703.784	50.2
704.014	50.07
704.244	43.63
704.475	42.49
704.705	41.06
704.936	40.62
705.166	40.74
705.396	41.11
705.627	40.86
705.857	41.37
706.087	41.91
706.317	40.08
706.548	39.62
706.778	38.59
707.008	39.78
707.238	41.43
707.468	39.68
707.698	37.96
707.928	36.76
708.158	36.31
708.389	36.27
708.619	34.26
708.849	31.83
709.079	32.18
709.309	31
709.539	29.73
709.768	30.19
709.998	32.02
710.228	33.81
710.458	30.3
710.688	26.89
710.918	27.8
711.148	26.83
711.378	27.05
711.607	25.59
711.837	25.63
712.067	25.14
712.297	25.41
712.526	24.76
712.756	25.02
712.986	22.39
713.215	19.6
713.445	20.2
713.674	20.54
713.904	20.86
714.134	23.53
714.363	21.72
714.593	20.51
714.822	20.12
715.052	18.56
715.281	19.57
715.511	17.45
715.74	16.19
715.969	16.19
716.199	15.44
716.428	14.82
716.657	14.56
716.887	16.7
717.116	14.47
717.345	14.6
717.575	16.78
717.804	18.66
718.033	17.98
718.262	17.2
718.492	18.78
718.721	19.57
718.95	18.74
719.179	17.89
719.408	18.5
719.637	15.99
719.866	14.35
720.095	15.98
720.324	14.72
720.553	11.68
720.782	11.17
721.011	9.9
721.24	6.89
721.469	5.62
721.698	4.46
721.927	4.7
722.156	3.29
722.385	1.53
722.613	5.94
722.842	6.43
723.071	8.5
723.3	10.08
723.529	8.97
723.757	9.33
723.986	6.04
724.215	5.31
724.443	6.35
724.672	8.72
724.901	8.52
725.129	9.63
725.358	12.97
725.586	9.96
725.815	9.7
726.043	8.96
726.272	7.34
726.5	6.04
726.729	6.94
726.957	2.72
727.186	0.54
727.414	2.66
727.642	4.68
727.871	6.12
728.099	5.36
728.327	5.16
728.556	7.89
728.784	10.84
729.012	8.25
729.241	11.2
729.469	10.41
729.697	7.66
729.925	7.49
730.153	5.66
730.381	4.92
730.61	6.46
730.838	2.92
731.066	3.69
731.294	3.97
731.522	-0.12
731.75	-5.01
731.978	-3.97
732.206	-4.48
732.434	-6.4
732.662	-5.41
732.89	-8.54
733.118	-9.54
733.346	-9.05
733.573	-8.51
733.801	-8.89
734.029	-2.07
734.257	-1.98
734.485	0.23
734.712	1.09
734.94	-0.48
735.168	2.13
735.396	3.73
735.623	1.98
735.851	1.54
736.078	4.58
736.306	5.41
736.534	6.19
736.761	5.96
736.989	3.48
737.216	2.89
737.444	1.23
737.671	1.32
737.899	6.53
738.126	4.99
738.354	4.98
738.581	6.55
738.809	8.45
739.036	4.81
739.263	5.08
739.491	2.58
739.718	3.75
739.945	9.31
740.173	11.59
740.4	12.04
740.627	10.1
740.854	9.82
741.081	7.8
741.309	7.34
741.536	4.27
741.763	3.87
741.99	5.11
742.217	4.8
742.444	3.03
742.671	4.85
742.898	5.73
743.125	3.01
743.352	0.21
743.579	-0.23
743.806	-0.88
744.033	2.36
744.26	2.87
744.487	2.32
744.714	2.24
744.941	1.31
745.167	4.32
745.394	4.18
745.621	4.41
745.848	4.53
746.075	7.61
746.301	10.09
746.528	14.72
746.755	13.27
746.981	11.76
747.208	13.09
747.435	15.21
747.661	15.6
747.888	18.8
748.114	16.27
748.341	18.62
748.567	19.73
748.794	16.47
749.02	15.86
749.247	13.03
749.473	12.91
749.7	12.21
749.926	11.22
750.152	15.76
750.379	15.38
750.605	16.11
750.831	15.61
751.058	14.98
751.284	13.4
751.51	16.69
751.737	18.08
751.963	17.16
752.189	16.95
752.415	15.78
752.641	15.57
752.867	14.13
753.094	12.33
753.32	9.49
753.546	7.72
753.772	8.98
753.998	7.99
754.224	6.81
754.45	6.17
754.676	6.32
754.902	4.41
755.128	5.73
755.354	3.42
755.579	4.23
755.805	6.28
756.031	5.24
756.257	5.86
756.483	5.13
756.709	2.35
756.934	2.48
757.16	-0.6
757.386	0.15
757.612	-2.73
757.837	-2.46
758.063	-2.43
758.289	1.66
758.514	-1.35
758.74	-4.87
758.965	-7.21
759.191	-6.65
759.416	-5.37
759.642	-4.97
759.868	-4.93
760.093	-3.38
760.318	-4.74
760.544	-5.27
760.769	-5.28
760.995	-6.73
761.22	-6.88
761.445	-4.98
761.671	-2.41
761.896	-0.69
762.121	-2.04
762.347	-0.89
762.572	-3.03
762.797	-2.85
763.022	-3.26
763.248	-1.72
763.473	-0.66
763.698	-1.55
763.923	-0.59
764.148	-0.33
764.373	-0.78
764.598	1.67
764.823	2.31
765.048	1.38
765.273	-1.79
765.498	-1.74
765.723	-1.34
765.948	-0.29
766.173	-1.56
766.398	-0.83
766.623	-2.24
766.848	-2.05
767.073	-2.96
767.298	-2.65
767.522	-2.73
767.747	-1.31
767.972	-0.96
768.197	-1.2
768.421	-3.6
768.646	-7.71
768.871	-9.62
769.095	-8.38
769.32	-7.58
769.545	-7.83
769.769	-7.77
769.994	-6.1
770.218	-6.83
770.443	-5.34
770.667	-3.05
770.892	-3.24
771.116	-4.12
771.341	-2.32
771.565	-3.44
771.79	-2.39
772.014	-1.87
772.238	-2.9
772.463	-0.88
772.687	0.11
772.911	-0.89
773.136	-1.84
773.36	-0.68
773.584	1.95
773.808	-0.2
774.033	-0.87
774.257	0.35
774.481	-1.22
774.705	-2.44
774.929	-2.39
775.153	-1.77
775.377	-1.69
775.602	-0.62
775.826	-0.61
776.05	1.9
776.274	2
776.498	2.51
776.722	2.14
776.945	3.1
777.169	2.76
777.393	1.48
777.617	0.67
777.841	0.92
778.065	1.37
778.289	-0.38
778.512	-0.44
778.736	-0.92
778.96	-2.59
779.184	-1.14
779.407	-2.38
779.631	-2.27
779.855	-2.81
780.078	-2.1
780.302	-4.47
780.526	-8.35
780.749	-7.56
780.973	-5.74
781.196	-6.25
781.42	-6.88
781.643	-7.25
781.867	-5.71
782.09	-9.1
782.314	-8.71
782.537	-10.58
782.76	-10.76
782.984	-10.34
783.207	-12.25
783.431	-13.12
783.654	-13.78
783.877	-16.35
784.1	-17.76
784.324	-18.23
784.547	-17.47
784.77	-21.51
784.993	-22.86
785.216	-23.17
785.44	-22.95
785.663	-24.28
785.886	-21.88
786.109	-22.86
786.332	-23.22
786.555	-22.09
786.778	-19.47
787.001	-20.5
787.224	-18.7
787.447	-16.27
787.67	-14.83
787.893	-14.32
788.116	-13.62
788.339	-12.77
788.561	-13.62
788.784	-17.99
789.007	-18.15
789.23	-18.86
789.453	-17.34
789.675	-19.47
789.898	-22.07
790.121	-22.99
790.344	-22.35
790.566	-21.09
790.789	-21.09
791.012	-20.16
791.234	-18.19
791.457	-16
791.679	-13.81
791.902	-12.97
792.124	-12.05
792.347	-14.49
792.569	-14.18
792.792	-17.34
793.014	-13.69
793.237	-13.4
793.459	-15.09
793.681	-14.93
793.904	-13.75
794.126	-15.17
794.348	-16.6
794.571	-15.53
794.793	-18.35
795.015	-19.11
795.237	-20.64
795.46	-19
795.682	-18.06
795.904	-15.65
796.126	-18.13
796.348	-19.01
796.57	-15.29
796.792	-14.96
797.014	-11.55
797.237	-10.25
797.459	-7.93
797.681	-6.16
797.903	-8
798.124	-8.25
798.346	3.29
798.568	4.01
798.79	7.82
799.012	7.75
799.234	11.57
799.456	12.65
799.678	15.29
799.899	12.74
800.121	11.46
800.343	12.5
800.565	12.77
800.786	12.3
801.008	13.57
801.23	14.1
801.451	14.19
801.673	13.12
801.895	13.16
802.116	16.42
802.338	17.03
802.559	16.85
802.781	15.26
803.002	18.1
803.224	20.31
803.445	17.75
803.667	19.32
803.888	17.29
804.109	17.5
804.331	15.42
804.552	15.55
804.773	18.97
804.995	16.51
805.216	1.29
805.437	-0.98
805.658	-4.41
805.88	-4.75
806.101	-4.4
806.322	-5.24
806.543	-6.03
806.764	-8
806.985	-6.03
807.207	-6.35
807.428	-7.2
807.649	-10.34
807.87	-11.94
808.091	-11.72
808.312	-10.93
808.533	-4.59
808.754	-2.34
808.975	-4.28
809.195	-3.68
809.416	-2.38
809.637	-3.08
809.858	-4.68
810.079	-5.79
810.3	-4.25
810.52	-4.99
810.741	-6.25
810.962	-8.17
811.183	-8.36
811.403	-8.72
811.624	-10.84
811.845	-8.78
812.065	-6.2
812.286	-4.54
812.506	-4.02
812.727	-4.73
812.948	-4.91
813.168	-2.26
813.389	-3.38
813.609	-1.69
813.83	-3.12
814.05	-4.15
814.27	-3.93
814.491	0.79
814.711	0.74
814.931	-1.49
815.152	-2.26
815.372	-4.63
815.592	-5.34
815.813	-6.34
816.033	-7.13
816.253	-5.26
816.473	-5.7
816.694	-5.24
816.914	-3.93
817.134	-2.82
817.354	-5.17
817.574	-3.76
817.794	-4.47
818.014	-5.15
818.234	-4.63
818.454	-5.35
818.674	-7.6
818.894	-10.18
819.114	-8.19
819.334	-8.46
819.554	-5.88
819.774	-3.65
819.994	-6.16
820.214	-6.04
820.433	-6.49
820.653	-6.52
820.873	-4.2
821.093	-2.82
821.312	-5.66
821.532	-4.29
821.752	-2.56
821.972	-4.02
822.191	-4.48
822.411	-7.59
822.63	-6.25
822.85	-6.47
823.07	-10.44
823.289	-8.28
823.509	-8.93
823.728	-5.87
823.948	-7.89
824.167	-7.63
824.387	-8.37
824.606	-6.82
824.825	-8.76
825.045	-8.85
825.264	-9.88
825.483	-8.78
825.703	-7.09
825.922	-9.58
826.141	-10.77
826.361	-12.65
826.58	-17.3
826.799	-18.23
827.018	-17.19
827.237	-17.28
827.456	-15.24
827.676	-16.34
827.895	-15.91
828.114	-14.3
828.333	-13.91
828.552	-12.2
828.771	-11.55
828.99	-13.95
829.209	-12.21
829.428	-9.37
829.647	-9.03
829.866	-6.97
830.084	-8.51
830.303	-7.38
830.522	-10.22
830.741	-9.69
830.96	-9.5
831.179	-9.9
831.397	-11.09
831.616	-10.69
831.835	-11.96
832.053	-9.71
832.272	-8.33
832.491	-7.61
832.709	-8.14
832.928	-6.62
833.147	-6.26
833.365	-3.96
833.584	-2.61
833.802	-0.81
834.021	0.12
834.239	0.98
834.458	0.74
834.676	-3.7
834.894	-4.71
835.113	-5.84
835.331	-5.8
835.55	-6.43
835.768	-4.82
835.986	-2.76
836.204	-5.84
836.423	-4.54
836.641	-5.63
836.859	-6.09
837.077	-6.78
837.296	-7.85
837.514	-10.04
837.732	-10.74
837.95	-11.72
838.168	-9.18
838.386	-8.83
838.604	-6.6
838.822	-5.65
839.04	-7.22
839.258	-5.87
839.476	-4.68
839.694	-4.47
839.912	-5.62
840.13	-7.11
840.348	-4.12
840.566	-7.24
840.783	-6.57
841.001	-9.05
841.219	-8.41
841.437	-6.97
841.655	-5.32
841.872	-6.13
842.09	-7.85
842.308	-6.44
842.525	-6.4
842.743	-6.72
842.961	-8.67
843.178	-11.42
843.396	-8.11
843.613	-6.81
843.831	-4.98
844.048	-4.41
844.266	-4.54
844.483	-5.85
844.701	-5.88
844.918	-6.77
845.136	-6.85
845.353	-8.7
845.57	-8.56
845.788	-5.23
846.005	-9.13
846.222	-10.69
846.439	-9.82
846.657	-9.11
846.874	-9.53
847.091	-12.14
847.308	-10.23
847.526	-11.83
847.743	-9.72
847.96	-11.71
848.177	-11.76
848.394	-12.97
848.611	-12.43
848.828	-12.77
849.045	-13.48
849.262	-14.09
849.479	-14.96
849.696	-13.02
849.913	-14.21
850.13	-19.04
850.347	-16.15
850.564	-17.48
850.78	-18.99
850.997	-18.67
851.214	-16.41
851.431	-15.07
851.647	-16.8
851.864	-16.28
852.081	-14.52
852.298	-18.04
852.514	-21.25
852.731	-18.79
852.948	-16.28
853.164	-15.38
853.381	-16.13
853.597	-16.47
853.814	-18.54
854.03	-21.29
854.247	-19.83
854.463	-20.71
854.68	-19.88
854.896	-18.54
855.113	-18.6
855.329	-18.14
855.545	-16.69
855.762	-17.84
855.978	-20.45
856.194	-21.79
856.411	-19.79
856.627	-18.34
856.843	-16.78
857.059	-15.13
857.275	-15.38
857.492	-13.19
857.708	-10.85
857.924	-10.69
858.14	-8.77
858.356	-9.45
858.572	-9.5
858.788	-11.22
859.004	-10.53
859.22	-12.28
859.436	-11.67
859.652	-13.03
859.868	-15.05
860.084	-14.35
860.3	-14.12
860.516	-13.88
860.731	-13.17
860.947	-15.63
861.163	-13.98
861.379	-12.4
861.595	-11.91
861.81	-11.22
862.026	-11.86
862.242	-11.42
862.457	-11.18
862.673	-9.32
862.889	-9.02
863.104	-9.48
863.32	-8.99
863.535	-8.25
863.751	-13.22
863.966	-11.17
864.182	-10.87
864.397	-11.48
864.613	-12.05
864.828	-12.55
865.044	-11.04
865.259	-8.68
865.474	-9.01
865.69	-5.92
865.905	-3.79
866.12	-6.22
866.336	-6.04
866.551	-4.82
866.766	-4.75
866.981	-4.46
867.196	-3.39
867.412	-2.72
867.627	-1
867.842	-3.21
868.057	-4.67
868.272	-6.16
868.487	-7.74
868.702	-9.69
868.917	-10.23
869.132	-8.88
869.347	-7.44
869.562	-8.85
869.777	-9.58
869.992	-11.29
870.207	-11.33
870.422	-10.83
870.636	-12.99
870.851	-14.98
871.066	-16.91
871.281	-17.62
871.495	-20.41
871.71	-18.85
871.925	-22.45
872.14	-21.68
872.354	-25.39
872.569	-27.13
872.783	-25.63
872.998	-25.48
873.213	-26.25
873.427	-24.27
873.642	-22.74
873.856	-22.66
874.071	-21.88
874.285	-22.9
874.5	-24.53
874.714	-26.05
874.928	-26.83
875.143	-26.54
875.357	-24.89
875.571	-27.17
875.786	-26.75
876	-23.91
876.214	-22.22
876.429	-24.93
876.643	-23.23
876.857	-22.36
877.071	-21.57
877.285	-22.06
877.499	-24.61
877.714	-22.24
877.928	-20.46
878.142	-20.86
878.356	-21.29
878.57	-19.06
878.784	-20.06
878.998	-19.3
879.212	-16.19
879.426	-18.1
879.639	-16.17
879.853	-17.38
880.067	-18.08
880.281	-20.75
880.495	-19.53
880.709	-18.54
880.922	-18.61
881.136	-17.14
881.35	-14.53
881.564	-13.85
881.777	-15.67
881.991	-15.78
882.205	-11.28
882.418	-11.4
882.632	-15.21
882.845	-15.72
883.059	-14.44
883.273	-15.17
883.486	-16.12
883.7	-13.74
883.913	-13.85
884.126	-11.17
884.34	-13.32
884.553	-15.1
884.767	-11.27
884.98	-12.25
885.193	-14.82
885.407	-16.21
885.62	-14.38
885.833	-14.74
886.046	-12.5
886.26	-14.77
886.473	-14.17
886.686	-13.88
886.899	-11.05
887.112	-12.43
887.326	-14.38
887.539	-12.9
887.752	-10.95
887.965	-13.34
888.178	-12.31
888.391	-10.93
888.604	-10.08
888.817	-12.42
889.03	-11.44
889.243	-12.23
889.455	-14.2
889.668	-14.3
889.881	-11.03
890.094	-12.43
890.307	-16.25
890.52	-15.63
890.732	-15.07
890.945	-15.5
891.158	-15.4
891.37	-18.24
891.583	-17.27
891.796	-14.11
892.008	-13.65
892.221	-14.83
892.434	-18.3
892.646	-20.52
892.859	-21.18
893.071	-20.86
893.284	-20.03
893.496	-21.61
893.709	-21.98
893.921	-20.98
894.133	-21.64
894.346	-23.09
894.558	-22.67
894.771	-22.18
894.983	-19.62
895.195	-19.21
895.407	-19
895.62	-22.2
895.832	-21.32
896.044	-17.54
896.256	-17.81
896.468	-20.52
896.681	-18.35
896.893	-16.33
897.105	-16.43
897.317	-17.92
897.529	-16.37
897.741	-15.17
897.953	-12.4
898.165	-14.19
898.377	-16.49
898.589	-14.53
898.801	-14.79
899.013	-12.15
899.224	-8.6
899.436	-6.87
899.648	-7.05
899.86	-9.71
900.072	-6.66
900.283	-4.75
900.495	-3.64
900.707	-4.04
900.919	-6.43
901.13	-5.59
901.342	-7.69
901.554	-9.45
901.765	-8.94
901.977	-10.75
902.188	-10.21
902.4	-10.9
902.611	-12.74
902.823	-14.02
903.034	-16.02
903.246	-18.37
903.457	-20.08
903.669	-20.2
903.88	-20.25
904.091	-19.64
904.303	-19.56
904.514	-21.16
904.725	-19.55
904.936	-18.77
905.148	-19.39
905.359	-17.97
905.57	-19.51
905.781	-21.63
905.992	-22.87
906.204	-22.55
906.415	-22.72
906.626	-25.71
906.837	-24.7
907.048	-26.51
907.259	-26.93
907.47	-27.48
907.681	-29.2
907.892	-26.82
908.103	-28.01
908.314	-30.13
908.525	-28.06
908.735	-28.23
908.946	-28.72
909.157	-30.19
909.368	-27.15
909.579	-25.03
909.789	-26.14
910	-26.52
910.211	-24.45
910.421	-24.24
910.632	-24.11
910.843	-25.47
911.053	-23.65
911.264	-21.76
911.475	-22.02
911.685	-21.71
911.896	-21.57
912.106	-19.26
912.317	-20.75
912.527	-18.6
912.737	-19.54
912.948	-17.92
913.158	-16.68
913.369	-20.02
913.579	-18.16
913.789	-16.32
914	-12.28
914.21	-12.29
914.42	-13.22
914.63	-13.51
914.841	-12.32
915.051	-11.27
915.261	-10.6
915.471	-7.74
915.681	-5.82
915.891	-5.66
916.101	-7.68
916.311	-7.09
916.521	-6.66
916.731	-6.7
916.941	-3.75
917.151	-4.32
917.361	-2.79
917.571	-5.79
917.781	-7.29
917.991	-9.26
918.201	-8.32
918.411	-10.73
918.621	-11.83
918.83	-11.01
919.04	-13.19
919.25	-10.99
919.46	-10.06
919.669	-11.9
919.879	-10.99
920.089	-12.71
920.298	-15.21
920.508	-15.65
920.717	-12.93
920.927	-14.38
921.136	-13.16
921.346	-14.27
921.555	-17.72
921.765	-16.94
921.974	-19.61
922.184	-22.44
922.393	-22.43
922.603	-22.28
922.812	-20.31
923.021	-20.32
923.23	-21.29
923.44	-25.91
923.649	-26.11
923.858	-26.37
924.067	-27.02
924.277	-27.79
924.486	-24.57
924.695	-26.61
924.904	-24.96
925.113	-25.64
925.322	-24.37
925.531	-23.14
925.74	-24.89
925.949	-26.32
926.158	-24.45
926.367	-23.94
926.576	-22.95
926.785	-22.35
926.994	-22.59
927.203	-22.95
927.412	-22.09
927.621	-22.11
927.83	-20.26
928.038	-19.47
928.247	-20.09
928.456	-19.34
928.665	-17.9
928.873	-17.85
929.082	-16.44
929.291	-14.57
929.499	-12.65
929.708	-13.94
929.916	-11.9
930.125	-12.95
930.333	-13.83
930.542	-10.41
930.75	-7.67
930.959	-7.31
931.167	-6.22
931.376	-7.26
931.584	-5.65
931.793	-5.23
932.001	-6.35
932.209	-8.04
932.418	-9.18
932.626	-10.53
932.834	-12.88
933.042	-15.7
933.251	-15.78
933.459	-15.93
933.667	-16.59
933.875	-17.63
934.083	-16.95
934.291	-17.21
934.499	-14.3
934.707	-14.99
934.915	-14.98
935.123	-13.35
935.331	-13.97
935.539	-14.03
935.747	-16.47
935.955	-17.99
936.163	-17.59
936.371	-16.63
936.579	-13.84
936.787	-13.53
936.995	-15.29
937.202	-18.87
937.41	-19.4
937.618	-20.29
937.826	-19.23
938.033	-22.81
938.241	-24.71
938.449	-22.5
938.656	-20.59
938.864	-20.31
939.071	-20.64
939.279	-17.23
939.486	-13.61
939.694	-14.39
939.901	-16.9
940.109	-16.97
940.316	-16.04
940.524	-16.58
940.731	-16.8
940.939	-17.45
941.146	-16.42
941.353	-16.17
941.561	-15.83
941.768	-16.91
941.975	-16.3
942.182	-16.22
942.39	-16.25
942.597	-13.43
942.804	-14.02
943.011	-15.17
943.218	-15.05
943.425	-14.22
943.632	-13
943.839	-14.52
944.046	-15
944.253	-14.91
944.46	-13.93
944.667	-10.81
944.874	-12.4
945.081	-9.74
945.288	-7.61
945.495	-4.77
945.702	-5.18
945.909	-8.42
946.115	-6.14
946.322	-6.34
946.529	-7.06
946.736	-6.64
946.942	-5.56
947.149	-6.72
947.356	-9.06
947.562	-11.21
947.769	-11.87
947.976	-12.92
948.182	-10.91
948.389	-12.95
948.595	-13.02
948.802	-11.89
949.008	-13.8
949.215	-13.14
949.421	-14.08
949.628	-13.89
949.834	-14.71
950.04	-15.46
950.247	-12.41
950.453	-10.96
950.659	-12.48
950.865	-11.07
951.072	-15.7
951.278	-11.72
951.484	-14.61
951.69	-18.62
951.896	-20.07
952.103	-21.18
952.309	-19.4
952.515	-20.54
952.721	-18.41
952.927	-17.18
953.133	-17.28
953.339	-18.84
953.545	-17.64
953.751	-16.63
953.957	-15.1
954.163	-16.59
954.369	-16.69
954.574	-18.8
954.78	-18.5
954.986	-16.15
955.192	-14.56
955.398	-14.86
955.603	-15.87
955.809	-14.13
956.015	-14.99
956.22	-13.6
956.426	-12.83
956.632	-15.99
956.837	-16.19
957.043	-14.56
957.248	-13.09
957.454	-11.82
957.66	-15.98
957.865	-16.84
958.07	-13.72
958.276	-16.39
958.481	-17.11
958.687	-18.02
958.892	-17.71
959.097	-17.21
959.303	-17.48
959.508	-19.8
959.713	-19.27
959.919	-20.07
960.124	-20.09
960.329	-19.3
960.534	-16.68
960.739	-14.97
960.945	-13.75
961.15	-13.58
961.355	-16.1
961.56	-19.34
961.765	-20.14
961.97	-19.75
962.175	-18.02
962.38	-21.46
962.585	-21.43
962.79	-22.66
962.995	-22.83
963.2	-23.6
963.404	-24.1
963.609	-27.26
963.814	-27.99
964.019	-29.65
964.224	-30.03
964.428	-29.38
964.633	-27.13
964.838	-25.38
965.042	-24.21
965.247	-25.04
965.452	-25.65
965.656	-24.69
965.861	-23.13
966.066	-24.71
966.27	-23.19
966.475	-20.26
966.679	-23.85
966.884	-23.18
967.088	-26.14
967.292	-26.43
967.497	-24.81
967.701	-26.34
967.906	-25.54
968.11	-22.64
968.314	-19.32
968.518	-21.51
968.723	-18.36
968.927	-17.5
969.131	-16.53
969.335	-13.07
969.539	-12.84
969.744	-12.64
969.948	-10.66
970.152	-8.44
970.356	-6.91
970.56	-6.42
970.764	-6.95
970.968	-4.22
971.172	-4.21
971.376	-4.58
971.58	-3.86
971.784	-2.87
971.988	-4.28
972.192	-1.24
972.395	-1.32
972.599	-3.87
972.803	-5.61
973.007	-2.96
973.21	-2.99
973.414	-2.59
973.618	-2.33
973.822	-3.69
974.025	-1.65
974.229	-1.09
974.432	-4.11
974.636	-6.55
974.84	-5.41
975.043	-5.13
975.247	-7.78
975.45	-8.83
975.654	-9.13
975.857	-8.72
976.06	-9.28
976.264	-10.52
976.467	-9.2
976.671	-8.95
976.874	-8.23
977.077	-10.77
977.28	-13.49
977.484	-16.6
977.687	-17.22
977.89	-15.99
978.093	-17.31
978.297	-15.39
978.5	-18.59
978.703	-16.61
978.906	-15.38
979.109	-15.92
979.312	-14.6
979.515	-14.93
979.718	-15.1
979.921	-16.34
980.124	-16.72
980.327	-18.16
980.53	-18.89
980.733	-17.32
980.936	-16.47
981.138	-18.95
981.341	-17.21
981.544	-16.6
981.747	-17.37
981.949	-18.78
982.152	-17.61
982.355	-18.5
982.558	-15.24
982.76	-19.01
982.963	-20.34
983.165	-20.05
983.368	-20.11
983.571	-20
983.773	-14.89
983.976	-14.4
984.178	-14.8
984.381	-15.12
984.583	-17.7
984.785	-17.4
984.988	-15.95
985.19	-14.9
985.392	-15.31
985.595	-18.18
985.797	-17.79
985.999	-15.9
986.202	-12.83
986.404	-12.82
986.606	-8.52
986.808	-9.82
987.01	-8.9
987.212	-9.53
987.415	-8.86
987.617	-8.61
987.819	-9.99
988.021	-9.16
988.223	-11.27
988.425	-11.99
988.627	-11.45
988.829	-15.03
989.031	-11.82
989.232	-11.99
989.434	-9.87
989.636	-9.31
989.838	-8.79
990.04	-8.72
990.242	-9.88
990.443	-10.77
990.645	-8.9
990.847	-6.78
991.048	-6.68
991.25	-9.03
991.452	-9.73
991.653	-10.53
991.855	-11.12
992.057	-13.35
992.258	-12.3
992.46	-13.16
992.661	-13.07
992.863	-16.19
993.064	-14.66
993.265	-15.48
993.467	-17.3
993.668	-16.7
993.87	-17.29
994.071	-15.77
994.272	-14.99
994.473	-13.09
994.675	-12.2
994.876	-11.17
995.077	-11.11
995.278	-11.09
995.48	-10.84
995.681	-13.91
995.882	-12.03
996.083	-12.84
996.284	-17.3
996.485	-16.25
996.686	-17.08
996.887	-18.92
997.088	-23.21
997.289	-23.9
997.49	-24.11
997.691	-24.88
997.892	-24.67
998.092	-20.34
998.293	-20.09
998.494	-21.42
998.695	-23.48
998.896	-20.31
999.096	-19.6
999.297	-19.55
999.498	-21.19
999.698	-22.92
999.899	-24.84
1000.1	-27.03
1000.3	-27.03
1000.501	-26.92
1000.701	-26.86
1000.902	-27.82
1001.102	-27.17
1001.303	-25.22
1001.503	-28.61
1001.704	-26.88
1001.904	-27.55
1002.105	-28.92
1002.305	-27.77
1002.505	-28.07
1002.706	-29.81
1002.906	-29.34
1003.106	-28.5
1003.306	-26.4
1003.507	-24.88
1003.707	-24.99
1003.907	-21.68
1004.107	-20.03
1004.307	-20.72
1004.507	-18.33
1004.707	-18.3
1004.907	-17.72
1005.107	-20.63
1005.308	-20.48
1005.507	-21.88
1005.707	-18.77
1005.907	-18.87
1006.107	-16.08
1006.307	-13.53
1006.507	-14.02
1006.707	-13.78
1006.907	-12.94
1007.106	-13.25
1007.306	-13.95
1007.506	-14.19
1007.706	-13.55
1007.905	-15.84
1008.105	-14.96
1008.305	-14.15
1008.504	-13.79
1008.704	-9.05
1008.903	-7.24
1009.103	-5.87
1009.303	-8.11
1009.502	-7.86
1009.702	-8.88
1009.901	-7.94
1010.1	-12.42
1010.3	-12.51
1010.499	-14.47
1010.699	-15.78
1010.898	-17.12
1011.097	-17.28
1011.296	-16.84
1011.496	-17.13
1011.695	-17.25
1011.894	-19.98
1012.093	-15.49
1012.293	-16.06
1012.492	-17.36
1012.691	-18.23
1012.89	-18.39
1013.089	-20.89
1013.288	-19.7
1013.487	-19.96
1013.686	-20.63
1013.885	-21.8
1014.084	-21.27
1014.283	-21.8
1014.482	-22.66
1014.681	-23.27
1014.88	-27.51
1015.078	-26.44
1015.277	-29.99
1015.476	-30.28
1015.675	-30.06
1015.873	-29.18
1016.072	-31.14
1016.271	-26.23
1016.47	-28.68
1016.668	-27.47
1016.867	-27.99
1017.065	-29.67
1017.264	-30.46
1017.463	-30.01
1017.661	-30.82
1017.86	-29.97
1018.058	-28.34
1018.256	-31.05
1018.455	-33.15
1018.653	-32.4
1018.852	-29.85
1019.05	-32.1
1019.248	-32.95
1019.447	-33.97
1019.645	-34.15
1019.843	-36.22
1020.041	-33.74
1020.24	-32.86
1020.438	-28.17
1020.636	-27.84
1020.834	-29.76
1021.032	-26.66
1021.23	-28.22
1021.428	-25.13
1021.626	-20.77
1021.824	-19.62
1022.022	-21.07
1022.22	-19.04
1022.418	-19.22
1022.616	-20.21
1022.814	-21.26
1023.012	-22.07
1023.21	-19.64
1023.408	-18.93
1023.606	-19.05
1023.803	-12.92
1024.001	-12.82
1024.199	-15.9
1024.397	-14.51
1024.594	-14.48
1024.792	-16.03
1024.99	-17.21
1025.187	-15.84
1025.385	-11.34
1025.582	-11.12
1025.78	-10.15
1025.977	-7.44
1026.175	-6.95
1026.372	-7.23
1026.57	-11.17
1026.767	-9.09
1026.965	-8.55
1027.162	-8.42
1027.359	-8.01
1027.557	-8.53
1027.754	-12.67
1027.951	-13.84
1028.148	-11.34
1028.346	-12.88
1028.543	-14.88
1028.74	-13.31
1028.937	-14.79
1029.134	-14.71
1029.331	-14.77
1029.528	-14.53
1029.725	-16.12
1029.923	-20.07
1030.12	-17.5
1030.317	-16.97
1030.513	-16.42
1030.71	-13.6
1030.907	-11.98
1031.104	-11.28
1031.301	-12.5
1031.498	-14.34
1031.695	-14.72
1031.892	-14.84
1032.088	-16
1032.285	-18.93
1032.482	-20.12
1032.678	-21.09
1032.875	-22.52
1033.072	-21.7
1033.268	-22.62
1033.465	-22.75
1033.662	-24.63
1033.858	-23.91
1034.055	-23.84
1034.251	-21.71
1034.448	-21.21
1034.644	-21.35
1034.84	-19.92
1035.037	-17.05
1035.233	-16.85
1035.43	-16.07
1035.626	-16.87
1035.822	-15.82
1036.019	-17.04
1036.215	-21.49
1036.411	-21.37
1036.607	-22.2
1036.803	-25.16
1037	-25.89
1037.196	-27.48
1037.392	-28.47
1037.588	-29.59
1037.784	-28.52
1037.98	-29.75
1038.176	-28.56
1038.372	-28.31
1038.568	-26.09
1038.764	-23.94
1038.96	-22.65
1039.156	-24.21
1039.352	-25.89
1039.547	-24.96
1039.743	-23.77
1039.939	-21.88
1040.135	-22.8
1040.331	-25.3
1040.526	-24.51
1040.722	-25.85
1040.918	-27.61
1041.113	-31.31
1041.309	-31.94
1041.505	-33.91
1041.7	-32.31
1041.896	-32.51
1042.091	-33.04
1042.287	-31.15
1042.482	-30.14
1042.678	-30.82
1042.873	-29.85
1043.069	-29.85
1043.264	-29.68
1043.459	-27.43
1043.655	-26.73
1043.85	-28.21
1044.045	-27.65
1044.24	-28.88
1044.436	-26.17
1044.631	-27.97
1044.826	-30.48
1045.021	-33.98
1045.216	-32.77
