Data from FLMT021711__1__17-53-21-184.txt Node

Date: Tue Nov 05 17:53:21 CET 2024
User: Etudiants TP
Spectrometer: FLMT02171
Trigger mode: 0
Integration Time (sec): 1.000000E-1
Scans to average: 5
Electric dark correction enabled: true
Nonlinearity correction enabled: false
Boxcar width: 15
XAxis mode: Wavelengths
Number of Pixels in Spectrum: 3648
>>>>>Begin Spectral Data<<<<<
194.658	-64.81
194.923	-60.13
195.188	-52.33
195.453	-51.18
195.717	-44.57
195.982	-44.68
196.247	-42.14
196.512	-43.63
196.777	-40.17
197.042	-38.5
197.307	-39.92
197.572	-35.82
197.837	-35.93
198.101	-33.03
198.366	-30.65
198.631	-28.92
198.896	-22.69
199.161	-16.83
199.425	-9.49
199.69	1.78
199.955	1.59
200.22	-1.6
200.484	-3.8
200.749	-4.29
201.014	-4.17
201.278	-3
201.543	-0.12
201.807	0.4
202.072	0.32
202.337	0.44
202.601	0.76
202.866	-0.79
203.13	0.09
203.395	-3.78
203.659	-4.47
203.924	-8.32
204.189	-7.37
204.453	-6.15
204.717	-2.8
204.982	-3.48
205.246	-1.62
205.511	1.06
205.775	0.59
206.04	5.45
206.304	5.38
206.568	7.66
206.833	7.3
207.097	7.9
207.361	9.57
207.626	11.91
207.89	11.68
208.154	12.44
208.419	14.22
208.683	15.91
208.947	19.27
209.211	20.08
209.476	18.4
209.74	18.08
210.004	17.8
210.268	18.9
210.532	21.68
210.796	22.79
211.061	23.34
211.325	22.87
211.589	22.88
211.853	24.62
212.117	25.67
212.381	26.87
212.645	26.48
212.909	25.5
213.173	23.23
213.437	23.21
213.701	24.24
213.965	24.83
214.229	19.33
214.493	19.74
214.757	18.88
215.021	20.51
215.285	24.36
215.549	27.14
215.813	25.38
216.077	25.01
216.34	27.08
216.604	26.13
216.868	25.6
217.132	24.82
217.396	23.93
217.659	23.76
217.923	19.61
218.187	19.49
218.451	19.73
218.714	17.69
218.978	16.49
219.242	18.98
219.505	18.71
219.769	20.25
220.033	19.52
220.296	21.05
220.56	22.23
220.824	19.87
221.087	20.37
221.351	20.87
221.614	19.82
221.878	21.75
222.142	19.98
222.405	21.96
222.669	22.3
222.932	17.97
223.196	14.48
223.459	11.15
223.722	11.89
223.986	11.12
224.249	10.37
224.513	10.3
224.776	11.11
225.04	10.94
225.303	10.69
225.566	10.53
225.83	13.81
226.093	16.74
226.356	15.36
226.62	12.15
226.883	14.76
227.146	15.91
227.409	15.11
227.673	14.29
227.936	13.53
228.199	14.18
228.462	11.62
228.725	9.02
228.989	9.59
229.252	10.7
229.515	16.12
229.778	14.39
230.041	12.1
230.304	10.08
230.567	10.18
230.83	8.88
231.093	11.68
231.356	11.97
231.619	17.39
231.882	15.72
232.145	17.06
232.408	15.41
232.671	15.04
232.934	13.87
233.197	13.13
233.46	13.11
233.723	14.12
233.986	11.25
234.249	9.9
234.512	13.11
234.775	17.18
235.037	16.15
235.3	16.63
235.563	16.57
235.826	17.27
236.089	18.99
236.351	17.7
236.614	22.42
236.877	24.88
237.14	27.07
237.402	25.96
237.665	18.8
237.928	18.97
238.19	16.94
238.453	19.63
238.716	19.01
238.978	19.57
239.241	18.19
239.503	20.44
239.766	15.53
240.029	14.06
240.291	17.58
240.554	19.72
240.816	18.1
241.079	18.53
241.341	18.83
241.604	18.28
241.866	16.31
242.129	18.25
242.391	20.2
242.653	18.31
242.916	17.57
243.178	16.47
243.441	17.06
243.703	15.01
243.965	12.44
244.228	12.67
244.49	13.72
244.752	12.63
245.015	12.1
245.277	13.11
245.539	12.17
245.801	14.66
246.064	14.79
246.326	14.51
246.588	15.16
246.85	17.43
247.112	18.31
247.374	20.17
247.637	21.8
247.899	21.46
248.161	20.12
248.423	16.02
248.685	16.25
248.947	16.8
249.209	16.51
249.471	16.91
249.733	16.84
249.995	15.94
250.257	14.69
250.519	13.62
250.781	16.14
251.043	13.65
251.305	16.2
251.567	16.16
251.829	17.35
252.091	17.69
252.353	13.9
252.615	14.61
252.876	13.06
253.138	11.11
253.4	7.2
253.662	8.15
253.924	10.6
254.185	12.06
254.447	12.18
254.709	11.39
254.971	11.48
255.232	12.52
255.494	11.8
255.756	10.45
256.017	10.85
256.279	13.66
256.541	12.59
256.802	11.77
257.064	11.55
257.326	11.43
257.587	12.83
257.849	14.51
258.11	17.45
258.372	18.83
258.633	19.39
258.895	18.26
259.156	16.94
259.418	14.85
259.679	11.26
259.941	9.05
260.202	12.32
260.464	14.74
260.725	13.14
260.987	11.86
261.248	12.2
261.509	13.39
261.771	12.27
262.032	13.19
262.293	11.81
262.555	13.13
262.816	11.56
263.077	11.12
263.338	8.57
263.6	8.52
263.861	7.77
264.122	7.01
264.383	7.67
264.645	9.41
264.906	7.44
265.167	9.18
265.428	9.08
265.689	8.65
265.95	6.16
266.211	6.47
266.473	5.41
266.734	3.08
266.995	-0.63
267.256	2.16
267.517	4.6
267.778	8.55
268.039	11.23
268.3	9.6
268.561	8.22
268.822	10.95
269.083	9.64
269.344	8.39
269.604	8.02
269.865	9.13
270.126	4.25
270.387	5.99
270.648	5.89
270.909	6.12
271.17	4.39
271.43	0.99
271.691	-2.04
271.952	-3.17
272.213	-0.74
272.473	-2.66
272.734	-1.41
272.995	0.1
273.256	-0.15
273.516	2.35
273.777	0.78
274.038	1.82
274.298	-0.96
274.559	-2.86
274.82	0.76
275.08	4.34
275.341	5.52
275.601	4.09
275.862	2.27
276.122	2.48
276.383	2.5
276.643	4.66
276.904	3.51
277.164	6.22
277.425	5.36
277.685	9.33
277.946	8.44
278.206	10.43
278.467	11.77
278.727	12.48
278.987	11.93
279.248	11.62
279.508	14.08
279.768	16.53
280.029	18.74
280.289	15.88
280.549	14.84
280.81	14.83
281.07	14.74
281.33	15.51
281.59	12.83
281.851	15.17
282.111	14.79
282.371	13.69
282.631	16.49
282.891	15.97
283.151	13.99
283.412	11.57
283.672	10.62
283.932	10.62
284.192	12.5
284.452	10.45
284.712	8.14
284.972	6.68
285.232	4.35
285.492	6.91
285.752	4.17
286.012	11.26
286.272	13.14
286.532	10.89
286.792	10.09
287.052	12.1
287.312	13.1
287.571	11.19
287.831	11.78
288.091	8.31
288.351	8.23
288.611	11.46
288.871	10.88
289.13	10.63
289.39	7.3
289.65	9.1
289.91	7.66
290.17	10.04
290.429	13.03
290.689	10.89
290.949	7.26
291.208	7.64
291.468	11.5
291.728	12.19
291.987	14.16
292.247	10.98
292.506	14.6
292.766	16.87
293.026	16.56
293.285	18.75
293.545	22.41
293.804	22.06
294.064	18.01
294.323	15.25
294.583	15.02
294.842	15.21
295.102	14.46
295.361	13.89
295.621	15.63
295.88	14.92
296.139	15.95
296.399	16.55
296.658	12.66
296.917	10.96
297.177	8.4
297.436	9.8
297.695	8.2
297.955	9.13
298.214	7.51
298.473	7.73
298.732	10.59
298.992	14.18
299.251	14.99
299.51	11.62
299.769	12.29
300.028	11.45
300.287	13.4
300.547	11.51
300.806	8.49
301.065	11.19
301.324	11.88
301.583	6.67
301.842	3.7
302.101	2.01
302.36	3.04
302.619	2.55
302.878	3.99
303.137	3.45
303.396	5.23
303.655	7.93
303.914	5.99
304.173	5.31
304.432	4.77
304.691	8.09
304.95	6.58
305.208	11.22
305.467	12.17
305.726	12.17
305.985	12.25
306.244	13.39
306.503	14.7
306.761	11.84
307.02	7.2
307.279	7.51
307.537	7.7
307.796	4.65
308.055	2.64
308.314	3.39
308.572	2.94
308.831	4.51
309.09	5.11
309.348	5.78
309.607	6.08
309.865	10.9
310.124	9.21
310.382	9.23
310.641	10.55
310.9	8.49
311.158	8.03
311.417	7.93
311.675	6.49
311.933	6.48
312.192	8.81
312.45	9.51
312.709	8.78
312.967	9.35
313.226	9.53
313.484	9.17
313.742	8.94
314.001	7.49
314.259	5.95
314.517	6.72
314.776	9.04
315.034	13.6
315.292	11.56
315.55	10.51
315.809	10.25
316.067	11.25
316.325	9.02
316.583	10.16
316.841	10.05
317.1	7.16
317.358	4.34
317.616	4.59
317.874	1.34
318.132	1.42
318.39	1.6
318.648	1.14
318.906	0.91
319.164	0.4
319.422	-1.58
319.68	-2.2
319.938	-0.23
320.196	-0.77
320.454	-0.55
320.712	-0.47
320.97	-0.11
321.228	-2.66
321.486	-0.74
321.744	-0.07
322.002	1.85
322.26	0.55
322.517	-1.12
322.775	-3.17
323.033	-6.17
323.291	-4.85
323.549	-3.41
323.806	-0.6
324.064	-0.17
324.322	1.7
324.58	0.72
324.837	2.2
325.095	0.64
325.353	1.78
325.61	3.72
325.868	3.62
326.126	5.26
326.383	4.11
326.641	2.51
326.898	3.84
327.156	3.9
327.413	4.97
327.671	5.25
327.928	6.8
328.186	6.9
328.443	5.66
328.701	8.74
328.958	9
329.216	9.61
329.473	6.82
329.731	6.29
329.988	5.78
330.245	8.41
330.503	10.12
330.76	9.78
331.017	12.25
331.275	11.28
331.532	11.31
331.789	8.66
332.047	8.48
332.304	5.26
332.561	6.35
332.818	4.2
333.076	7
333.333	8.29
333.59	7
333.847	9.1
334.104	8.68
334.361	8.79
334.618	8.79
334.876	7.01
335.133	7.34
335.39	4.98
335.647	6.04
335.904	2.6
336.161	1.06
336.418	2.38
336.675	-2.15
336.932	-0.2
337.189	-0.59
337.446	0.29
337.703	-0.1
337.96	-3.67
338.216	-4.72
338.473	-7.66
338.73	-7.03
338.987	-6.93
339.244	-4.78
339.501	-6.4
339.757	-4.96
340.014	-4.27
340.271	-3.52
340.528	-3.3
340.785	1.7
341.041	1.95
341.298	-1.03
341.555	-0.07
341.811	-0.91
342.068	-3.29
342.325	-3.59
342.581	0.02
342.838	1.06
343.094	0.46
343.351	1.58
343.608	-1.8
343.864	1.17
344.121	2.12
344.377	3
344.634	2.03
344.89	0.47
345.147	0.26
345.403	-1.17
345.66	-1.02
345.916	1.36
346.172	0.43
346.429	-0.99
346.685	-2.26
346.942	-2.23
347.198	-5.8
347.454	-5.93
347.711	-5.64
347.967	-8.65
348.223	-7.89
348.48	-9.11
348.736	-7.35
348.992	-8.18
349.248	-5.62
349.504	-5.55
349.761	-6.4
350.017	-6.05
350.273	-4.79
350.529	-6.01
350.785	-6.82
351.041	-6.14
351.297	-5.33
351.554	-5.99
351.81	-8.74
352.066	-10.23
352.322	-11.9
352.578	-9.76
352.834	-11.16
353.09	-11.57
353.346	-11.23
353.602	-12.39
353.858	-12.16
354.114	-12.56
354.369	-10.89
354.625	-8.03
354.881	-9.44
355.137	-6.97
355.393	-6.85
355.649	-7.03
355.905	-5.66
356.16	-4.86
356.416	-3.39
356.672	-9.98
356.928	-8.8
357.183	-9.69
357.439	-9.9
357.695	-10.21
357.951	-5.45
358.206	-7.19
358.462	-7.62
358.718	-9.12
358.973	-8.98
359.229	-7.7
359.484	-6.6
359.74	-3.64
359.996	-1.95
360.251	1.87
360.507	2.16
360.762	2.59
361.018	4.87
361.273	2.73
361.529	4.94
361.784	3.65
362.04	5.57
362.295	5.87
362.55	5.55
362.806	7.33
363.061	8.84
363.316	10.43
363.572	10.97
363.827	11.41
364.082	7.49
364.338	7.21
364.593	8.02
364.848	7.96
365.104	8.53
365.359	10.44
365.614	10.26
365.869	7.53
366.124	8.74
366.38	7.28
366.635	10.22
366.89	11.81
367.145	10.05
367.4	14.42
367.655	13.66
367.91	13.97
368.165	11.16
368.42	8.23
368.675	9.16
368.93	8.71
369.185	7.18
369.44	5.95
369.695	8.45
369.95	7.2
370.205	6.03
370.46	5.08
370.715	4.15
370.97	4.37
371.225	3.84
371.48	4.55
371.734	5.71
371.989	8.01
372.244	7.18
372.499	8.01
372.754	6.81
373.008	2.39
373.263	-1.92
373.518	1.98
373.773	0.82
374.027	-1.15
374.282	-0
374.537	-0.03
374.791	2.24
375.046	1.59
375.301	-0.91
375.555	-2.12
375.81	-1.75
376.064	-0.67
376.319	2.7
376.573	1.48
376.828	-1.2
377.082	4.67
377.337	3.2
377.591	0.87
377.846	2.18
378.1	4.57
378.355	5.51
378.609	5.61
378.863	2.78
379.118	2.94
379.372	2.08
379.627	0.53
379.881	-0.14
380.135	-0.14
380.389	0.49
380.644	1.15
380.898	3.24
381.152	4.72
381.407	3.1
381.661	6.11
381.915	8.22
382.169	8.59
382.423	6.96
382.677	2.52
382.932	3.67
383.186	5.04
383.44	6.09
383.694	9.21
383.948	6.98
384.202	6.49
384.456	9.62
384.71	12.37
384.964	10.71
385.218	12.83
385.472	12.93
385.726	12.25
385.98	11.51
386.234	10.01
386.488	8.82
386.742	9.67
386.996	9.47
387.249	10.99
387.503	13.12
387.757	13.56
388.011	14.42
388.265	13.74
388.518	13.87
388.772	16.46
389.026	16.96
389.28	14.82
389.533	11.83
389.787	14.7
390.041	12.71
390.295	12.92
390.548	12.6
390.802	14.79
391.055	13.53
391.309	12.66
391.563	10.08
391.816	11.23
392.07	9.66
392.323	10.04
392.577	10.89
392.83	10.82
393.084	15.93
393.337	20.46
393.591	20.38
393.844	20.09
394.098	23.08
394.351	25.22
394.604	26.53
394.858	27.39
395.111	26.63
395.364	24.3
395.618	25.51
395.871	23.5
396.124	23.59
396.378	23.9
396.631	24.15
396.884	22.24
397.137	23.12
397.391	23.82
397.644	19.98
397.897	21.38
398.15	22.73
398.403	25.7
398.657	24.24
398.91	22.84
399.163	23.3
399.416	21.73
399.669	20.29
399.922	18.69
400.175	17.01
400.428	15.38
400.681	16.29
400.934	11.2
401.187	9.4
401.44	10.13
401.693	9.18
401.946	7.79
402.199	2.97
402.452	1.51
402.704	-2.06
402.957	-2.58
403.21	-1.35
403.463	-0.17
403.716	1.06
403.969	2.02
404.221	0.02
404.474	0.05
404.727	3.67
404.98	5.19
405.232	5.92
405.485	8.04
405.738	9.57
405.99	9.6
406.243	10.14
406.496	12.9
406.748	14.52
407.001	13.86
407.253	14.96
407.506	15.1
407.759	16.7
408.011	14.33
408.264	14.46
408.516	13.6
408.769	11.6
409.021	12.1
409.274	13.11
409.526	15.91
409.778	14.61
410.031	17.56
410.283	17.93
410.536	23.35
410.788	21.04
411.04	20.17
411.293	20.38
411.545	20
411.797	18.83
412.049	19.18
412.302	20.38
412.554	21.01
412.806	17.93
413.058	16.56
413.311	16.63
413.563	14.99
413.815	14.64
414.067	12.07
414.319	10.56
414.571	9.9
414.823	8.05
415.075	7.12
415.328	8.38
415.58	11.6
415.832	13.24
416.084	14.67
416.336	13.92
416.588	17.09
416.84	15.05
417.091	16.59
417.343	12.5
417.595	13.99
417.847	16.59
418.099	17.48
418.351	16.49
418.603	20.19
418.855	20.84
419.106	21.05
419.358	22.27
419.61	23.26
419.862	24.68
420.114	22.81
420.365	21.85
420.617	23.68
420.869	23.2
421.12	23.22
421.372	24.57
421.624	23.68
421.875	24.8
422.127	21.35
422.379	21.62
422.63	23.72
422.882	22.39
423.133	23.34
423.385	23.09
423.636	25.28
423.888	26.99
424.139	29.4
424.391	27.42
424.642	27.06
424.894	24.65
425.145	24.36
425.396	21.95
425.648	23.28
425.899	22.23
426.151	22.67
426.402	22.42
426.653	23.26
426.905	21.65
427.156	19.94
427.407	19.55
427.658	19.18
427.91	17.57
428.161	18.05
428.412	19.17
428.663	20.46
428.914	21.05
429.166	22.73
429.417	24.71
429.668	23.27
429.919	22.44
430.17	22.52
430.421	24.33
430.672	26.99
430.923	26.05
431.174	25.16
431.425	24.15
431.676	22.14
431.927	19.13
432.178	21.76
432.429	21.96
432.68	22.15
432.931	26.35
433.182	29.7
433.433	26.6
433.683	28.86
433.934	27.67
434.185	25.55
434.436	23.8
434.687	24.6
434.937	27.08
435.188	24.9
435.439	24.82
435.69	25.77
435.94	23.63
436.191	25.08
436.442	24.76
436.692	23.51
436.943	20.04
437.194	18.49
437.444	21.45
437.695	25.72
437.945	26.19
438.196	24.5
438.447	25.34
438.697	25.12
438.948	24.14
439.198	22.02
439.449	19.68
439.699	22.14
439.949	21.27
440.2	21.65
440.45	23.64
440.701	23.3
440.951	23.26
441.201	25.19
441.452	23.5
441.702	23.3
441.952	25.43
442.203	27.31
442.453	26.65
442.703	26.75
442.953	29.45
443.204	31.17
443.454	29.42
443.704	31.01
443.954	28.02
444.204	29.2
444.455	30.69
444.705	33.53
444.955	33.94
445.205	33.51
445.455	31.2
445.705	32.93
445.955	33.01
446.205	31.64
446.455	34.54
446.705	35.7
446.955	37.58
447.205	40.87
447.455	43.04
447.705	41.54
447.955	41.03
448.205	41.45
448.454	41.38
448.704	42.54
448.954	42.62
449.204	44.34
449.454	45.49
449.704	45.65
449.953	46.44
450.203	49.78
450.453	48.4
450.703	50.48
450.952	49.93
451.202	53.06
451.452	53.5
451.701	56.82
451.951	60.79
452.201	61.33
452.45	61
452.7	64.72
452.949	64.95
453.199	65.97
453.448	66.69
453.698	69.54
453.947	69.77
454.197	67.77
454.446	68.29
454.696	71.52
454.945	70.14
455.195	67.12
455.444	69.82
455.693	73.74
455.943	72.95
456.192	74.74
456.442	75.96
456.691	75.72
456.94	75.58
457.189	74.94
457.439	77.43
457.688	78.91
457.937	77.58
458.186	77.53
458.436	77.92
458.685	79.69
458.934	78.32
459.183	78.3
459.432	79.84
459.681	78.86
459.93	77.18
460.179	77.14
460.429	74.52
460.678	77.52
460.927	79.76
461.176	79.23
461.425	77.91
461.674	81.26
461.923	82.08
462.172	81.26
462.42	79.82
462.669	81.63
462.918	81.84
463.167	81.01
463.416	78.02
463.665	77.95
463.914	77.4
464.162	74.44
464.411	74.77
464.66	76.45
464.909	76.23
465.158	75.33
465.406	74.51
465.655	76.16
465.904	78.79
466.152	77.62
466.401	77.17
466.65	79.75
466.898	78.73
467.147	76.15
467.395	74.32
467.644	77.4
467.893	76.96
468.141	76.76
468.39	73.14
468.638	70.98
468.887	69.08
469.135	68.57
469.384	67.04
469.632	67.78
469.88	67.59
470.129	69.02
470.377	66.76
470.626	69.85
470.874	71.34
471.122	72.42
471.371	71.2
471.619	68.92
471.867	72.23
472.115	71.62
472.364	68.53
472.612	71.26
472.86	69.3
473.108	69.79
473.356	69.76
473.605	69.32
473.853	67.73
474.101	66.81
474.349	65.19
474.597	67.15
474.845	65.38
475.093	65.12
475.341	62.43
475.589	62.99
475.837	63.57
476.085	66.11
476.333	65.1
476.581	67.12
476.829	66.39
477.077	69.34
477.325	68.36
477.573	68.67
477.821	65.89
478.069	67.88
478.317	67.56
478.564	68.89
478.812	67.38
479.06	66.2
479.308	65.9
479.555	64.37
479.803	64.83
480.051	66.42
480.299	65.09
480.546	64.88
480.794	62.61
481.042	62.11
481.289	60.98
481.537	61.86
481.784	60.95
482.032	64.54
482.28	64.42
482.527	64.98
482.775	65.55
483.022	65.83
483.27	66.39
483.517	69.77
483.765	68.37
484.012	68.67
484.259	66.38
484.507	69.94
484.754	69.66
485.002	69.7
485.249	69.26
485.496	72.89
485.744	71.57
485.991	70.51
486.238	70.73
486.486	74.67
486.733	76.25
486.98	80.13
487.227	79.4
487.474	80.85
487.722	83.78
487.969	81.91
488.216	82.88
488.463	83.25
488.71	82.49
488.957	81.98
489.204	82.85
489.451	85.11
489.699	84.82
489.946	82.91
490.193	82.66
490.44	82.71
490.687	84.82
490.934	83.53
491.18	79.58
491.427	80.97
491.674	84.54
491.921	85.52
492.168	84.59
492.415	82.66
492.662	85.41
492.909	87.78
493.155	86.86
493.402	86.02
493.649	86.24
493.896	86.26
494.142	82.43
494.389	82.26
494.636	80.35
494.883	80.18
495.129	78.61
495.376	77.05
495.623	80.24
495.869	82.04
496.116	84.45
496.362	86.39
496.609	91.42
496.855	96.99
497.102	95.38
497.348	94.9
497.595	97.9
497.841	103.33
498.088	102.29
498.334	102.22
498.581	102.89
498.827	104.23
499.074	104.98
499.32	106.96
499.566	111.8
499.813	112.02
500.059	111.18
500.305	111.01
500.552	110.04
500.798	109.39
501.044	114.38
501.29	112.89
501.537	111.29
501.783	114.87
502.029	118.66
502.275	117.3
502.521	116.45
502.767	118.83
503.013	121.98
503.26	119.54
503.506	116.4
503.752	117.56
503.998	116.56
504.244	115.8
504.49	113.06
504.736	115.48
504.982	114.7
505.228	116.36
505.474	115.92
505.72	118.11
505.966	117.19
506.211	120.23
506.457	120.75
506.703	119.58
506.949	117.02
507.195	115.74
507.441	114.21
507.686	117.35
507.932	117.22
508.178	120.13
508.424	119.93
508.669	117.8
508.915	120.02
509.161	123.4
509.406	124.76
509.652	125.38
509.898	129.49
510.143	130.79
510.389	129.57
510.634	126.3
510.88	130.04
511.125	134.84
511.371	135.65
511.616	136.9
511.862	134.31
512.107	131.58
512.353	132.52
512.598	133.66
512.844	130.51
513.089	128.25
513.335	129.64
513.58	129.7
513.825	129.67
514.071	129.95
514.316	130.73
514.561	132.71
514.806	130.95
515.052	133.54
515.297	132.45
515.542	133.98
515.787	135.12
516.033	137.23
516.278	137.43
516.523	136.01
516.768	134.98
517.013	132.16
517.258	131.65
517.503	131.66
517.748	131.83
517.993	132.46
518.238	133.07
518.483	132.19
518.728	130.87
518.973	129.11
519.218	128.93
519.463	131.57
519.708	131.9
519.953	131.63
520.198	131.59
520.443	134.96
520.688	138.57
520.933	139.15
521.177	141.1
521.422	139.69
521.667	142.62
521.912	142.43
522.157	138.62
522.401	141.55
522.646	142.28
522.891	143.12
523.135	144.1
523.38	144.08
523.625	142.08
523.869	144.45
524.114	147.2
524.358	146.32
524.603	147.84
524.848	146.78
525.092	145.87
525.337	147.55
525.581	149.45
525.826	152.15
526.07	152.55
526.315	153.5
526.559	153.59
526.803	152.67
527.048	155.48
527.292	156.05
527.537	155.84
527.781	155.73
528.025	153.37
528.269	154.95
528.514	153.89
528.758	151.99
529.002	151.94
529.247	154.93
529.491	153.19
529.735	158.94
529.979	159.09
530.223	160.23
530.467	158.2
530.712	157.19
530.956	156.35
531.2	157.74
531.444	156.21
531.688	157.8
531.932	156.63
532.176	157.92
532.42	157.49
532.664	159.13
532.908	159.04
533.152	156.76
533.396	155.52
533.64	154.96
533.884	153.23
534.128	152.43
534.371	155.13
534.615	156.55
534.859	157.43
535.103	157.69
535.347	157.97
535.59	160.1
535.834	156
536.078	157.53
536.322	160.34
536.565	164.21
536.809	161.33
537.053	164.88
537.296	163.05
537.54	162.83
537.784	161.18
538.027	163.69
538.271	161.56
538.514	159.71
538.758	160.16
539.001	158.89
539.245	158.32
539.488	160.86
539.732	161.79
539.975	163.11
540.219	165.97
540.462	165.73
540.706	168.51
540.949	168.5
541.192	170.02
541.436	176.68
541.679	182.81
541.922	182.67
542.166	177.46
542.409	177.13
542.652	178.63
542.895	180.66
543.139	181.25
543.382	186.98
543.625	187.67
543.868	188.35
544.111	186.08
544.354	185.49
544.598	184.49
544.841	184.48
545.084	184.41
545.327	184.97
545.57	185.55
545.813	189.11
546.056	190.66
546.299	191.85
546.542	194.67
546.785	198.69
547.028	198.65
547.271	198.46
547.514	198.92
547.756	195.11
547.999	197.27
548.242	197.97
548.485	195.7
548.728	194.86
548.971	190.23
549.213	189.71
549.456	188.76
549.699	190.36
549.942	191.3
550.184	190.36
550.427	189.36
550.67	189.81
550.912	184.1
551.155	184.66
551.398	183.04
551.64	184.62
551.883	185.64
552.125	185.44
552.368	186.46
552.61	183.63
552.853	185.85
553.095	184.89
553.338	184.03
553.58	184.27
553.823	183.57
554.065	185.91
554.308	180.18
554.55	180.01
554.792	178.83
555.035	177.54
555.277	177.94
555.519	178.67
555.762	176.76
556.004	178.48
556.246	177.59
556.488	178.71
556.731	175.74
556.973	178.09
557.215	177.54
557.457	179.09
557.699	181.47
557.941	180.61
558.183	179.61
558.426	183.66
558.668	180.61
558.91	182.36
559.152	181.64
559.394	180.81
559.636	183.59
559.878	184.83
560.12	185.04
560.362	186.34
560.604	187.27
560.845	187.67
561.087	186.82
561.329	189.36
561.571	187.69
561.813	190.04
562.055	188.35
562.297	189.62
562.538	192.36
562.78	196.06
563.022	194.21
563.264	197.59
563.505	198.78
563.747	198.53
563.989	197.37
564.23	198.2
564.472	196.41
564.714	199.91
564.955	200.87
565.197	198.23
565.438	200.45
565.68	205.46
565.921	203.87
566.163	208.01
566.404	206.97
566.646	210.51
566.887	214.59
567.129	215.62
567.37	213.98
567.612	217.96
567.853	216.3
568.094	218.4
568.336	219.58
568.577	221.77
568.818	223.08
569.06	221.7
569.301	220.01
569.542	221.89
569.783	224.47
570.025	223.78
570.266	224.17
570.507	225.24
570.748	224.1
570.989	226.47
571.23	230.91
571.472	232.02
571.713	231.58
571.954	234.5
572.195	233.74
572.436	236.24
572.677	240.11
572.918	241.4
573.159	239.17
573.4	238.58
573.641	238.26
573.882	240.58
574.123	238.11
574.364	232.48
574.604	233.73
574.845	234.13
575.086	233.89
575.327	235.88
575.568	235.47
575.809	235.16
576.049	234.24
576.29	230.57
576.531	236.96
576.771	241.59
577.012	245.27
577.253	245.11
577.494	245.03
577.734	244.56
577.975	247.16
578.215	246.83
578.456	244.68
578.697	245.45
578.937	247.78
579.178	248.64
579.418	246.75
579.659	245.54
579.899	241.79
580.14	242.28
580.38	243.22
580.62	243.74
580.861	247.68
581.101	247.69
581.342	247.71
581.582	243.53
581.822	247.06
582.063	245.6
582.303	246.6
582.543	247.07
582.783	247.84
583.024	249.27
583.264	252.08
583.504	252.58
583.744	256.04
583.984	253.23
584.224	252.25
584.465	249.78
584.705	250.5
584.945	251.09
585.185	251.54
585.425	251.9
585.665	252.62
585.905	252.66
586.145	251.47
586.385	250.5
586.625	252.94
586.865	253.32
587.105	254.94
587.345	255.77
587.585	254.26
587.824	251.9
588.064	251.55
588.304	249.78
588.544	250.34
588.784	248.91
589.024	253.65
589.263	253.34
589.503	252.83
589.743	255.27
589.982	254.92
590.222	254.47
590.462	253.48
590.701	251.75
590.941	254.48
591.181	253.82
591.42	252.66
591.66	256.39
591.899	260.41
592.139	260.06
592.378	261.9
592.618	260.89
592.857	260.79
593.097	262.74
593.336	264.37
593.576	264.88
593.815	265.19
594.055	266.11
594.294	268.07
594.533	267.47
594.773	268.61
595.012	270.97
595.251	273.27
595.491	277.27
595.73	280.15
595.969	280.42
596.208	282.72
596.447	288.07
596.687	290.42
596.926	291.05
597.165	288.64
597.404	291.89
597.643	291.32
597.882	290.37
598.121	292.22
598.36	293.5
598.599	295.71
598.838	296.36
599.077	293.24
599.316	294.13
599.555	293.66
599.794	294.44
600.033	299.74
600.272	301.43
600.511	298.88
600.75	301.27
600.989	302.95
601.228	304.84
601.466	303.53
601.705	304.57
601.944	305.7
602.183	308.8
602.422	309.18
602.66	308.41
602.899	306.74
603.138	307.18
603.376	308.36
603.615	308.22
603.854	306.72
604.092	306.85
604.331	309.04
604.569	310.98
604.808	309.49
605.047	310.16
605.285	310.87
605.524	309.58
605.762	307.6
606	308.07
606.239	309.5
606.477	309.01
606.716	303.38
606.954	303.31
607.193	299.91
607.431	292.96
607.669	290.88
607.908	291.28
608.146	292.46
608.384	290.96
608.622	289.44
608.861	288.92
609.099	287.33
609.337	287.09
609.575	284.27
609.813	282.97
610.052	282.76
610.29	277.7
610.528	274
610.766	272.57
611.004	272
611.242	268.98
611.48	268.33
611.718	263.94
611.956	263.01
612.194	261.36
612.432	260.5
612.67	258.64
612.908	259.32
613.146	255.98
613.384	255.19
613.621	252.98
613.859	253.69
614.097	253.96
614.335	252.61
614.573	252.57
614.811	254.66
615.048	252.68
615.286	252.41
615.524	249.25
615.761	246.51
615.999	246.06
616.237	245
616.474	246.69
616.712	246.87
616.95	244.32
617.187	243.49
617.425	243.17
617.662	244.19
617.9	243.65
618.137	239.89
618.375	238.28
618.612	235.52
618.85	235.59
619.087	238.52
619.325	237.39
619.562	234.5
619.799	232.75
620.037	231.59
620.274	229.64
620.511	231.52
620.749	226.66
620.986	224.54
621.223	221.17
621.461	220.37
621.698	221.93
621.935	221.84
622.172	218.65
622.409	219.9
622.647	219.09
622.884	215.94
623.121	217.65
623.358	214.23
623.595	214.38
623.832	212.18
624.069	208.49
624.306	208.67
624.543	209.46
624.78	209.58
625.017	209.44
625.254	210.51
625.491	213.32
625.728	215.42
625.965	214.78
626.202	213.34
626.438	211.19
626.675	210.43
626.912	213.5
627.149	213.59
627.386	213.28
627.622	211.19
627.859	210.33
628.096	210.06
628.333	209.9
628.569	210.42
628.806	211.31
629.043	208.38
629.279	209.55
629.516	210.67
629.752	207.7
629.989	206.8
630.225	205.14
630.462	204.15
630.699	204.62
630.935	202.02
631.171	198.02
631.408	198.08
631.644	195.84
631.881	192.01
632.117	189.66
632.354	189.52
632.59	187.33
632.826	185.86
633.063	183.1
633.299	183.65
633.535	180.09
633.771	179.02
634.008	179.62
634.244	177.33
634.48	174.71
634.716	176.59
634.953	174.77
635.189	173.53
635.425	174.55
635.661	176.13
635.897	174.26
636.133	173.87
636.369	173.68
636.605	169.16
636.841	167.45
637.077	167.36
637.313	166.78
637.549	168.07
637.785	165.56
638.021	165.81
638.257	165.2
638.493	168.72
638.729	166.08
638.965	169.47
639.2	169.65
639.436	167.28
639.672	165.09
639.908	162.37
640.144	164.68
640.379	167.07
640.615	162.93
640.851	165.94
641.086	166.37
641.322	164.49
641.558	165.06
641.793	166.63
642.029	162.68
642.264	161.86
642.5	161.51
642.736	157.92
642.971	157.76
643.207	155.04
643.442	151.14
643.678	150.91
643.913	150.76
644.148	150.47
644.384	153.28
644.619	152.03
644.855	151.92
645.09	152.09
645.325	151.55
645.561	151.09
645.796	147.75
646.031	152.16
646.266	148.72
646.502	147.73
646.737	149.31
646.972	150
647.207	150.08
647.442	147.35
647.678	143.55
647.913	147.06
648.148	145.85
648.383	144.6
648.618	143.26
648.853	142.79
649.088	143.2
649.323	145.55
649.558	146.71
649.793	145.74
650.028	146.7
650.263	142.76
650.498	144.4
650.733	145.6
650.968	142.68
651.202	144.33
651.437	141.45
651.672	137.02
651.907	136.25
652.142	136.22
652.376	136.71
652.611	137.71
652.846	137.88
653.081	137.03
653.315	133.32
653.55	133.17
653.785	131.98
654.019	131.98
654.254	129.74
654.488	129.86
654.723	125.01
654.958	122.63
655.192	120.24
655.427	117.14
655.661	117.07
655.896	118.07
656.13	118.68
656.364	115.55
656.599	111.69
656.833	113.24
657.068	115.3
657.302	114.53
657.536	112.49
657.771	113.86
658.005	113.05
658.239	114.04
658.474	110.32
658.708	110.97
658.942	109.99
659.176	107.28
659.41	102.8
659.645	100.78
659.879	97.99
660.113	94.82
660.347	93.6
660.581	90.99
660.815	88.76
661.049	87.38
661.283	85.52
661.517	83.26
661.751	81.11
661.985	80.83
662.219	81.9
662.453	80.64
662.687	80.45
662.921	76.91
663.155	76.25
663.389	69.51
663.622	67.72
663.856	69.93
664.09	66.35
664.324	65.12
664.558	66.06
664.791	65.63
665.025	63.85
665.259	63.81
665.492	62.2
665.726	65.41
665.96	65.11
666.193	63.03
666.427	65.01
666.661	65.68
666.894	64.43
667.128	63.56
667.361	65.4
667.595	65.21
667.828	64.53
668.062	63.6
668.295	63.66
668.529	63.42
668.762	63.55
668.995	62.61
669.229	66.59
669.462	64.88
669.695	65.04
669.929	63.25
670.162	64.07
670.395	62.13
670.629	64.22
670.862	65.31
671.095	61.23
671.328	60.89
671.561	57.73
671.795	57.8
672.028	57.98
672.261	58
672.494	58.37
672.727	56.82
672.96	56.78
673.193	54.62
673.426	59.96
673.659	58.68
673.892	58.47
674.125	57.77
674.358	57.39
674.591	56.31
674.824	55.53
675.057	57.38
675.29	56.99
675.523	58.29
675.755	56.54
675.988	57.82
676.221	61.17
676.454	58.41
676.687	61.13
676.919	60.75
677.152	60.82
677.385	59.79
677.617	59.63
677.85	59.44
678.083	58.39
678.315	60.93
678.548	60.27
678.78	58.52
679.013	56.06
679.246	57.62
679.478	58.3
679.711	55.66
679.943	56.85
680.175	53.65
680.408	58.3
680.64	53.39
680.873	54.61
681.105	54.34
681.338	57.22
681.57	55.91
681.802	56.13
682.034	55.03
682.267	55.64
682.499	56.99
682.731	54.17
682.964	53.84
683.196	50.67
683.428	48.87
683.66	47.18
683.892	49.25
684.124	50.82
684.356	53.52
684.589	53.46
684.821	52.18
685.053	51.08
685.285	50.23
685.517	50.62
685.749	51.01
685.981	51.66
686.213	52.84
686.445	52.15
686.676	49.73
686.908	50.69
687.14	49.61
687.372	51.03
687.604	46.96
687.836	47.39
688.068	46.16
688.299	45.56
688.531	42.55
688.763	47.06
688.995	45.92
689.226	48.16
689.458	46.04
689.69	44.09
689.921	43.05
690.153	43.61
690.384	46.34
690.616	44.18
690.848	44.7
691.079	40.13
691.311	37.02
691.542	34.32
691.774	32.14
692.005	34.95
692.237	38.1
692.468	37.49
692.699	36.91
692.931	36.85
693.162	34.98
693.393	33.61
693.625	31.12
693.856	31.6
694.087	30.42
694.319	31.71
694.55	31.37
694.781	31.01
695.012	29.08
695.243	27.78
695.475	27.47
695.706	28.63
695.937	27.23
696.168	25.07
696.399	22.62
696.63	21.56
696.861	21.71
697.092	26.81
697.323	28.81
697.554	28.33
697.785	28.61
698.016	29.57
698.247	28.07
698.478	30.13
698.709	30.33
698.94	32.47
699.171	30.71
699.401	27.86
699.632	28.29
699.863	24.17
700.094	24.11
700.325	26.7
700.555	27.53
700.786	30.06
701.017	28.94
701.247	29.56
701.478	29.25
701.709	27.72
701.939	26.13
702.17	29.42
702.401	31.68
702.631	31.79
702.862	29.8
703.092	26.18
703.323	29.75
703.553	31.87
703.784	32.4
704.014	32.74
704.244	27.84
704.475	26.8
704.705	27.53
704.936	28.27
705.166	28.04
705.396	30.5
705.627	29.71
705.857	29.58
706.087	29.4
706.317	28.15
706.548	25.59
706.778	25.64
707.008	27.01
707.238	26.27
707.468	24.29
707.698	21.32
707.928	20.18
708.158	19.58
708.389	19.01
708.619	16.99
708.849	16.8
709.079	17.41
709.309	13.9
709.539	10.52
709.768	11.34
709.998	13.45
710.228	12.25
710.458	10.14
710.688	7.33
710.918	7.99
711.148	6.44
711.378	7.2
711.607	4.97
711.837	4.78
712.067	4.06
712.297	2.88
712.526	1.77
712.756	2.17
712.986	-0.06
713.215	-1.78
713.445	-1.35
713.674	0.98
713.904	1.25
714.134	4.53
714.363	4.43
714.593	3.73
714.822	5.26
715.052	4.92
715.281	5.63
715.511	3.47
715.74	4.14
715.969	2.16
716.199	2.57
716.428	3.07
716.657	4.14
716.887	4.66
717.116	1.75
717.345	4.18
717.575	5.75
717.804	7.37
718.033	6.73
718.262	7.43
718.492	7.19
718.721	9.04
718.95	8.99
719.179	7.52
719.408	7.28
719.637	4.32
719.866	2.56
720.095	4.39
720.324	2.95
720.553	0.01
720.782	-1
721.011	-1.41
721.24	-4.37
721.469	-4.81
721.698	-4.08
721.927	-4.43
722.156	-6.82
722.385	-6.9
722.613	-3.04
722.842	-2.95
723.071	0.83
723.3	2.16
723.529	1.86
723.757	3.51
723.986	0.71
724.215	-0.71
724.443	0.58
724.672	1.65
724.901	1
725.129	2.77
725.358	5.63
725.586	3.94
725.815	2.74
726.043	0.99
726.272	0.36
726.5	1.44
726.729	3.36
726.957	0.61
727.186	-1.7
727.414	0.63
727.642	2.19
727.871	3.72
728.099	3.98
728.327	3.62
728.556	3.86
728.784	4.39
729.012	2.63
729.241	6.47
729.469	5.61
729.697	3.21
729.925	4.09
730.153	2.3
730.381	2.16
730.61	1.93
730.838	-1.98
731.066	-0.81
731.294	0.65
731.522	-3.26
731.75	-7.34
731.978	-7.03
732.206	-9.7
732.434	-10.84
732.662	-9.09
732.89	-11.77
733.118	-11.92
733.346	-12.28
733.573	-12.04
733.801	-12.91
734.029	-6.5
734.257	-4.88
734.485	-1.58
734.712	0.09
734.94	-2.12
735.168	-0.26
735.396	-0.32
735.623	-1.05
735.851	-1.27
736.078	0.26
736.306	-0.8
736.534	-1.48
736.761	-0.8
736.989	-3.6
737.216	-4.26
737.444	-6.65
737.671	-4.47
737.899	0.54
738.126	-0.32
738.354	1.32
738.581	3.11
738.809	3.81
739.036	1.33
739.263	2.76
739.491	0.01
739.718	-0.45
739.945	4.37
740.173	5.37
740.4	5.82
740.627	4.34
740.854	5.2
741.081	2.62
741.309	0.28
741.536	-4.54
741.763	-6.59
741.99	-5.33
742.217	-3.57
742.444	-2.29
742.671	-1.09
742.898	0.98
743.125	-0.96
743.352	-2.91
743.579	-3.58
743.806	-5.05
744.033	-1.48
744.26	-0.34
744.487	-1.19
744.714	-1.97
744.941	-2.45
745.167	2.36
745.394	0.26
745.621	0.11
745.848	1.81
746.075	3.32
746.301	5.45
746.528	9.09
746.755	6.75
746.981	5.53
747.208	8.47
747.435	10.76
747.661	11.67
747.888	12.43
748.114	10.3
748.341	13.71
748.567	16.81
748.794	15.26
749.02	14.95
749.247	10.6
749.473	9.32
749.7	9.71
749.926	8.9
750.152	12.95
750.379	14.43
750.605	16.12
750.831	16.42
751.058	14.55
751.284	13.06
751.51	16.37
751.737	18.17
751.963	16.7
752.189	14.14
752.415	13.76
752.641	12.89
752.867	12.07
753.094	10.94
753.32	9.19
753.546	7.6
753.772	10.62
753.998	10.03
754.224	8.16
754.45	7.44
754.676	6.87
754.902	5.84
755.128	7.1
755.354	4.97
755.579	4.67
755.805	7.24
756.031	4.78
756.257	4.03
756.483	2.87
756.709	-0.24
756.934	-0.32
757.16	-1.88
757.386	-2.56
757.612	-5.4
757.837	-7.11
758.063	-4.75
758.289	-1.91
758.514	-3.01
758.74	-6.33
758.965	-8.75
759.191	-7.89
759.416	-6.93
759.642	-6.18
759.868	-6.66
760.093	-3.98
760.318	-5.74
760.544	-6.51
760.769	-6.9
760.995	-6.95
761.22	-7.1
761.445	-5.56
761.671	-3.39
761.896	-0.96
762.121	-0.6
762.347	0.9
762.572	-1.59
762.797	-1.89
763.022	0.11
763.248	3.8
763.473	5.87
763.698	6.84
763.923	5.65
764.148	3.34
764.373	2.96
764.598	6.35
764.823	8.75
765.048	6.35
765.273	2.6
765.498	1.13
765.723	0.28
765.948	0.38
766.173	0.53
766.398	1.5
766.623	0.29
766.848	-0.86
767.073	-3.23
767.298	-2.63
767.522	-1.58
767.747	-1.85
767.972	-2.23
768.197	-2.91
768.421	-3.93
768.646	-7.61
768.871	-10.86
769.095	-10.78
769.32	-9.74
769.545	-9.14
769.769	-9
769.994	-7.82
770.218	-9.7
770.443	-8.66
770.667	-8.29
770.892	-7.46
771.116	-7.68
771.341	-6.1
771.565	-7.12
771.79	-6.54
772.014	-7.08
772.238	-7.17
772.463	-4.49
772.687	-2.08
772.911	-1.75
773.136	-4.56
773.36	-3.82
773.584	-3.53
773.808	-3.82
774.033	-2.79
774.257	-1.35
774.481	-3.21
774.705	-3.08
774.929	-3.67
775.153	-2.89
775.377	-2.96
775.602	-2.92
775.826	-1.03
776.05	-0.19
776.274	-1.95
776.498	-2.41
776.722	-2.87
776.945	-3.34
777.169	-2.91
777.393	-5.11
777.617	-4.99
777.841	-4.35
778.065	-2.11
778.289	-3.25
778.512	-5.33
778.736	-6.17
778.96	-7.65
779.184	-5.12
779.407	-6.51
779.631	-6.65
779.855	-7.16
780.078	-7.26
780.302	-9.83
780.526	-10.31
780.749	-11.31
780.973	-9.28
781.196	-10.31
781.42	-11.56
781.643	-11.55
781.867	-11.73
782.09	-15.11
782.314	-16.26
782.537	-16.96
782.76	-17.61
782.984	-16.25
783.207	-17.39
783.431	-16.77
783.654	-18.67
783.877	-20.98
784.1	-22.52
784.324	-22.31
784.547	-23.43
784.77	-27.99
784.993	-29.55
785.216	-30.4
785.44	-28.58
785.663	-30.09
785.886	-26.49
786.109	-27.4
786.332	-26.83
786.555	-26.74
786.778	-24.87
787.001	-23.82
787.224	-22.29
787.447	-21.41
787.67	-18.49
787.893	-19.65
788.116	-18.32
788.339	-15.81
788.561	-17.1
788.784	-19.31
789.007	-19.86
789.23	-19.1
789.453	-19.07
789.675	-21.5
789.898	-24.14
790.121	-24.21
790.344	-25.1
790.566	-22.6
790.789	-21.52
791.012	-21.34
791.234	-19
791.457	-14.77
791.679	-13.15
791.902	-12.48
792.124	-12.04
792.347	-13.39
792.569	-12.59
792.792	-16.13
793.014	-12.79
793.237	-12.34
793.459	-12.81
793.681	-13.36
793.904	-13.05
794.126	-14.67
794.348	-14.6
794.571	-13.99
794.793	-15.62
795.015	-15.92
795.237	-16.76
795.46	-16.13
795.682	-14.94
795.904	-12.24
796.126	-14.59
796.348	-15.55
796.57	-10.95
796.792	-9.68
797.014	-5.96
797.237	-4.44
797.459	-3.35
797.681	-2.18
797.903	-3.87
798.124	-3.98
798.346	6.65
798.568	9.06
798.79	12.96
799.012	14.26
799.234	14.92
799.456	16.92
799.678	20.33
799.899	17.83
800.121	15.52
800.343	16.31
800.565	16.36
800.786	15.73
801.008	17.36
801.23	16.71
801.451	17.36
801.673	16.44
801.895	17.07
802.116	18.73
802.338	20.81
802.559	21.68
802.781	20.42
803.002	23.42
803.224	26.12
803.445	24.23
803.667	24.57
803.888	23.48
804.109	24.4
804.331	23.83
804.552	23.7
804.773	25.32
804.995	22.09
805.216	7.35
805.437	4.65
805.658	1.15
805.88	-1.29
806.101	-0.12
806.322	-0.69
806.543	-2.35
806.764	-6.15
806.985	-3.67
807.207	-2.83
807.428	-2.12
807.649	-3.87
807.87	-5.31
808.091	-4.38
808.312	-3.58
808.533	0.91
808.754	1.15
808.975	-1.2
809.195	-0.8
809.416	-0.89
809.637	-1.45
809.858	-4.04
810.079	-5.23
810.3	-4.69
810.52	-5.91
810.741	-9.07
810.962	-10.78
811.183	-12.25
811.403	-12.68
811.624	-12.16
811.845	-9.74
812.065	-8.76
812.286	-7.6
812.506	-7.94
812.727	-6.48
812.948	-5.72
813.168	-5.02
813.389	-5.61
813.609	-3.17
813.83	-4.43
814.05	-6.91
814.27	-6.94
814.491	-3.41
814.711	-4.33
814.931	-7.23
815.152	-8.34
815.372	-9.4
815.592	-10.57
815.813	-11.44
816.033	-12.48
816.253	-11.59
816.473	-12.03
816.694	-9.77
816.914	-8.68
817.134	-8.17
817.354	-9.26
817.574	-7.8
817.794	-7.87
818.014	-8.03
818.234	-8.02
818.454	-9.42
818.674	-12.01
818.894	-13.72
819.114	-10.48
819.334	-11.1
819.554	-10.15
819.774	-8.18
819.994	-9.61
820.214	-10.74
820.433	-8.9
820.653	-10.45
820.873	-8.29
821.093	-7.64
821.312	-10.33
821.532	-7.44
821.752	-4.6
821.972	-5.55
822.191	-4.98
822.411	-7.53
822.63	-6.39
822.85	-7.09
823.07	-9.42
823.289	-7.9
823.509	-10.09
823.728	-8.91
823.948	-10.7
824.167	-11.26
824.387	-13.33
824.606	-11.79
824.825	-13.64
825.045	-13.43
825.264	-13.97
825.483	-11.74
825.703	-9.17
825.922	-12.04
826.141	-11.9
826.361	-13.11
826.58	-17.5
826.799	-18.81
827.018	-17.29
827.237	-17.59
827.456	-15.18
827.676	-14.7
827.895	-15.17
828.114	-13.39
828.333	-13.81
828.552	-13.45
828.771	-13.31
828.99	-15.31
829.209	-14.24
829.428	-11.93
829.647	-11.53
829.866	-10.35
830.084	-10.9
830.303	-10.95
830.522	-11.95
830.741	-12.6
830.96	-11.4
831.179	-10.04
831.397	-12.01
831.616	-10.78
831.835	-10.95
832.053	-9.14
832.272	-9.08
832.491	-8.63
832.709	-9.95
832.928	-9.09
833.147	-7.04
833.365	-5.08
833.584	-2.11
833.802	0.52
834.021	0.48
834.239	0.98
834.458	-1.1
834.676	-5.65
834.894	-5.98
835.113	-6.62
835.331	-7.42
835.55	-8.57
835.768	-8.64
835.986	-7.02
836.204	-9.45
836.423	-9.15
836.641	-9.14
836.859	-9.81
837.077	-7.37
837.296	-8.17
837.514	-9.16
837.732	-9.96
837.95	-10.54
838.168	-8.52
838.386	-9.51
838.604	-7.66
838.822	-7.87
839.04	-8.47
839.258	-8.9
839.476	-6.74
839.694	-6.5
839.912	-8.55
840.13	-9.29
840.348	-6.54
840.566	-10.06
840.783	-9.06
841.001	-10.09
841.219	-8.92
841.437	-6.05
841.655	-5.81
841.872	-5.32
842.09	-6.57
842.308	-5.49
842.525	-5.39
842.743	-3.74
842.961	-4.88
843.178	-6.85
843.396	-3.41
843.613	-1.94
843.831	-1.46
844.048	-1.82
844.266	-0.74
844.483	-2.26
844.701	-3.69
844.918	-3.39
845.136	-2.82
845.353	-4.34
845.57	-3.74
845.788	-1.23
846.005	-2.45
846.222	-3.12
846.439	-2.14
846.657	-2.08
846.874	-1.17
847.091	-4.34
847.308	-2.73
847.526	-5.04
847.743	-5.27
847.96	-7.18
848.177	-7.02
848.394	-7.6
848.611	-7.89
848.828	-7.52
849.045	-8.16
849.262	-6.85
849.479	-8.3
849.696	-9
849.913	-10.29
850.13	-15.05
850.347	-12.43
850.564	-14.78
850.78	-14.98
850.997	-17
851.214	-15.89
851.431	-13.58
851.647	-16.74
851.864	-16.11
852.081	-14.23
852.298	-17.78
852.514	-19.79
852.731	-17.84
852.948	-17.07
853.164	-17.44
853.381	-17.77
853.597	-18.25
853.814	-20.86
854.03	-22.21
854.247	-20.33
854.463	-20.18
854.68	-19.52
854.896	-17.86
855.113	-16.14
855.329	-15.89
855.545	-15.43
855.762	-16.26
855.978	-21.02
856.194	-23.35
856.411	-18.79
856.627	-16.41
856.843	-14.62
857.059	-13.64
857.275	-13.5
857.492	-12.61
857.708	-8.11
857.924	-6.85
858.14	-5.13
858.356	-4.37
858.572	-4.47
858.788	-6.43
859.004	-3.76
859.22	-5.45
859.436	-6.24
859.652	-7.28
859.868	-8.69
860.084	-7.88
860.3	-8.54
860.516	-7.27
860.731	-7.74
860.947	-9.9
861.163	-8.54
861.379	-7.59
861.595	-6.54
861.81	-6.41
862.026	-6.73
862.242	-6.22
862.457	-5.21
862.673	-2.55
862.889	-2.52
863.104	-2.91
863.32	-3.39
863.535	-3.26
863.751	-8.12
863.966	-5.4
864.182	-4.49
864.397	-6.45
864.613	-8.22
864.828	-8.67
865.044	-7.56
865.259	-4.72
865.474	-5.24
865.69	-3.22
865.905	-1.31
866.12	-4.04
866.336	-3.83
866.551	-2.44
866.766	-3.77
866.981	-5.12
867.196	-5.4
867.412	-4.53
867.627	-3.78
867.842	-4.33
868.057	-6.08
868.272	-8.21
868.487	-9.88
868.702	-11.58
868.917	-12.12
869.132	-12.74
869.347	-12.25
869.562	-11.49
869.777	-12.53
869.992	-12.61
870.207	-13.17
870.422	-12.6
870.636	-15.49
870.851	-16.56
871.066	-19.34
871.281	-18.8
871.495	-21.04
871.71	-18.16
871.925	-21.2
872.14	-22.02
872.354	-24.95
872.569	-25.94
872.783	-23.31
872.998	-23.74
873.213	-25.67
873.427	-22.49
873.642	-20.34
873.856	-20.53
874.071	-21.64
874.285	-23.19
874.5	-24.38
874.714	-24.84
874.928	-25.6
875.143	-26.31
875.357	-26.12
875.571	-27.32
875.786	-26.04
876	-22.21
876.214	-20.86
876.429	-23.12
876.643	-23.32
876.857	-21.48
877.071	-21.74
877.285	-22.68
877.499	-25.38
877.714	-22.66
877.928	-20.07
878.142	-21.14
878.356	-24.76
878.57	-23.14
878.784	-21.19
878.998	-21.72
879.212	-19.59
879.426	-20.96
879.639	-18.18
879.853	-17.99
880.067	-18.88
880.281	-20.79
880.495	-18.82
880.709	-15.62
880.922	-14.67
881.136	-12.8
881.35	-9.97
881.564	-9.87
881.777	-11.99
881.991	-11.23
882.205	-7.99
882.418	-7.97
882.632	-12.52
882.845	-13.11
883.059	-11.94
883.273	-11.85
883.486	-13.12
883.7	-9.53
883.913	-8.95
884.126	-7.71
884.34	-10.26
884.553	-12.5
884.767	-7.91
884.98	-7.34
885.193	-10.07
885.407	-11.78
885.62	-9.74
885.833	-9.93
886.046	-9.28
886.26	-11.31
886.473	-12.05
886.686	-12.2
886.899	-10.18
887.112	-12.02
887.326	-15.88
887.539	-13.91
887.752	-14.19
887.965	-16.75
888.178	-15.82
888.391	-14.58
888.604	-13.39
888.817	-14.48
889.03	-11.65
889.243	-12.38
889.455	-13.98
889.668	-13.91
889.881	-10.49
890.094	-11.24
890.307	-15
890.52	-13.02
890.732	-10.91
890.945	-10.3
891.158	-9.66
891.37	-11.76
891.583	-11.24
891.796	-9.12
892.008	-9.44
892.221	-11.08
892.434	-16.01
892.646	-15.32
892.859	-17.02
893.071	-15.52
893.284	-15.53
893.496	-16.66
893.709	-16.91
893.921	-15.05
894.133	-17.03
894.346	-17.96
894.558	-17.84
894.771	-17.42
894.983	-15.56
895.195	-15.03
895.407	-15.57
895.62	-19.94
895.832	-17.81
896.044	-15.62
896.256	-17.02
896.468	-19.99
896.681	-19.65
896.893	-17.15
897.105	-18.02
897.317	-19
897.529	-16.66
897.741	-16.15
897.953	-15.15
898.165	-17.3
898.377	-19.24
898.589	-17.03
898.801	-16.66
899.013	-13.02
899.224	-11.51
899.436	-8.57
899.648	-8.59
899.86	-9.02
900.072	-5.78
900.283	-3.67
900.495	-2.75
900.707	-1.62
900.919	-4.13
901.13	-2.69
901.342	-5.18
901.554	-5.89
901.765	-6.99
901.977	-7.68
902.188	-7.88
902.4	-9.94
902.611	-12.19
902.823	-12.45
903.034	-13.74
903.246	-15.27
903.457	-17.45
903.669	-18.8
903.88	-19.27
904.091	-20.85
904.303	-19.99
904.514	-21.45
904.725	-18.9
904.936	-16.75
905.148	-18.01
905.359	-16.37
905.57	-16.55
905.781	-18.48
905.992	-18.78
906.204	-17.36
906.415	-17.03
906.626	-19.56
906.837	-16.87
907.048	-18.11
907.259	-19.28
907.47	-19.52
907.681	-20.63
907.892	-16.49
908.103	-17.89
908.314	-20.26
908.525	-18.8
908.735	-18.39
908.946	-19.1
909.157	-19.57
909.368	-16.67
909.579	-14.5
909.789	-15.4
910	-16.22
910.211	-13.73
910.421	-14.02
910.632	-12.47
910.843	-15.25
911.053	-12.71
911.264	-11.68
911.475	-13.06
911.685	-12.38
911.896	-13.16
912.106	-13.03
912.317	-14.4
912.527	-13.99
912.737	-15.27
912.948	-14.87
913.158	-14.05
913.369	-18.48
913.579	-15.61
913.789	-15.18
914	-10.7
914.21	-10.73
914.42	-11.4
914.63	-12.19
914.841	-10.63
915.051	-10.15
915.261	-9.08
915.471	-5.4
915.681	-4.16
915.891	-5.15
916.101	-6.86
916.311	-6.25
916.521	-4.78
916.731	-3.49
916.941	-0.06
917.151	-1.57
917.361	1.95
917.571	-1.17
917.781	-2.72
917.991	-5.13
918.201	-5.01
918.411	-7.51
918.621	-8.16
918.83	-7.54
919.04	-8.25
919.25	-6.51
919.46	-5.75
919.669	-8.25
919.879	-7.7
920.089	-9.79
920.298	-11.31
920.508	-11.95
920.717	-11.07
920.927	-12.97
921.136	-10.14
921.346	-10.52
921.555	-13.4
921.765	-13.91
921.974	-16.82
922.184	-20.16
922.393	-19.68
922.603	-20.54
922.812	-17.9
923.021	-18.24
923.23	-20.7
923.44	-24.34
923.649	-23.6
923.858	-25.9
924.067	-26.27
924.277	-27.83
924.486	-24.72
924.695	-25.42
924.904	-22.31
925.113	-21.81
925.322	-19.9
925.531	-20.89
925.74	-23.21
925.949	-24.47
926.158	-23.03
926.367	-23.29
926.576	-23.58
926.785	-23.61
926.994	-26.13
927.203	-25.48
927.412	-24.96
927.621	-26.01
927.83	-24.79
928.038	-24.78
928.247	-23.72
928.456	-22.96
928.665	-20.68
928.873	-19.16
929.082	-17.38
929.291	-16.95
929.499	-16.53
929.708	-17.72
929.916	-16.92
930.125	-18.27
930.333	-18.71
930.542	-15.58
930.75	-12.45
930.959	-12.54
931.167	-13.64
931.376	-14.85
931.584	-13.31
931.793	-12.67
932.001	-12.98
932.209	-14.37
932.418	-16.25
932.626	-18.37
932.834	-19.05
933.042	-21.02
933.251	-21.05
933.459	-20.03
933.667	-21.23
933.875	-21.64
934.083	-21.38
934.291	-19.77
934.499	-18.04
934.707	-18.67
934.915	-19.06
935.123	-16.11
935.331	-18.37
935.539	-19.47
935.747	-20.52
935.955	-19.66
936.163	-20.16
936.371	-19.34
936.579	-16.8
936.787	-16.67
936.995	-18.31
937.202	-21.11
937.41	-20.39
937.618	-20.46
937.826	-20.39
938.033	-25.44
938.241	-27.5
938.449	-24.93
938.656	-22.52
938.864	-22.75
939.071	-22.42
939.279	-19.78
939.486	-16.77
939.694	-16.77
939.901	-19.1
940.109	-18.44
940.316	-18.96
940.524	-19.32
940.731	-21.59
940.939	-21.9
941.146	-22.27
941.353	-22.8
941.561	-24.15
941.768	-25.03
941.975	-23.7
942.182	-24.3
942.39	-25.44
942.597	-21.9
942.804	-22.98
943.011	-24.33
943.218	-24.16
943.425	-24.59
943.632	-24.3
943.839	-25
944.046	-25.38
944.253	-25.12
944.46	-23.21
944.667	-20.57
944.874	-22.34
945.081	-20.62
945.288	-17.41
945.495	-13.77
945.702	-15.19
945.909	-17.54
946.115	-15.03
946.322	-15.25
946.529	-16.55
946.736	-16.05
946.942	-14.86
947.149	-14.22
947.356	-15.58
947.562	-17.06
947.769	-16.08
947.976	-17.71
948.182	-15.78
948.389	-17.55
948.595	-17.17
948.802	-17.07
949.008	-18.62
949.215	-16.75
949.421	-17.69
949.628	-18.83
949.834	-18.16
950.04	-18.33
950.247	-14.91
950.453	-12.98
950.659	-14.26
950.865	-12.38
951.072	-16.74
951.278	-13.82
951.484	-14.84
951.69	-18.66
951.896	-20.35
952.103	-19.54
952.309	-18.83
952.515	-20.38
952.721	-17.84
952.927	-15.77
953.133	-16.31
953.339	-16.47
953.545	-16.76
953.751	-14.69
953.957	-12.45
954.163	-14.26
954.369	-13.36
954.574	-14.67
954.78	-13.97
954.986	-14.09
955.192	-10.83
955.398	-13.2
955.603	-16.6
955.809	-14.96
956.015	-13.38
956.22	-14.34
956.426	-12.36
956.632	-16.6
956.837	-17.13
957.043	-16.27
957.248	-16.07
957.454	-16.16
957.66	-19.05
957.865	-20.42
958.07	-19.43
958.276	-21.16
958.481	-21.41
958.687	-22.59
958.892	-22.19
959.097	-22.55
959.303	-23.53
959.508	-24.19
959.713	-25.26
959.919	-26.94
960.124	-27.46
960.329	-27.02
960.534	-22.94
960.739	-21.69
960.945	-19.82
961.15	-19.76
961.355	-21.64
961.56	-26.38
961.765	-25.67
961.97	-24.46
962.175	-21.73
962.38	-25.22
962.585	-23.36
962.79	-25.33
962.995	-25.52
963.2	-27.18
963.404	-27.23
963.609	-29.13
963.814	-29.11
964.019	-31.07
964.224	-32.77
964.428	-31.24
964.633	-29.6
964.838	-30.23
965.042	-29.34
965.247	-31.79
965.452	-31.23
965.656	-30.51
965.861	-29.56
966.066	-31.85
966.27	-28.94
966.475	-25.3
966.679	-28.68
966.884	-29.31
967.088	-31.19
967.292	-31.61
967.497	-30.47
967.701	-29.57
967.906	-27.8
968.11	-24.42
968.314	-21.9
968.518	-24.43
968.723	-21.49
968.927	-21.71
969.131	-19.97
969.335	-16.41
969.539	-14.82
969.744	-13.92
969.948	-11.93
970.152	-10.44
970.356	-8.6
970.56	-7.95
970.764	-9.01
970.968	-6.31
971.172	-5.23
971.376	-4.12
971.58	-1.15
971.784	-1.2
971.988	-2.18
972.192	0.15
972.395	1.45
972.599	-0.71
972.803	-2.94
973.007	-2.01
973.21	-2.67
973.414	-2.74
973.618	-3.57
973.822	-4.15
974.025	-3.83
974.229	-3.67
974.432	-7.78
974.636	-9.51
974.84	-8.18
975.043	-7.69
975.247	-8.23
975.45	-9.62
975.654	-10.56
975.857	-9.95
976.06	-11.87
976.264	-13.98
976.467	-12.48
976.671	-13.11
976.874	-11.79
977.077	-12.26
977.28	-13.65
977.484	-15.95
977.687	-16.47
977.89	-15.48
978.093	-15.56
978.297	-13.68
978.5	-15.31
978.703	-14.17
978.906	-12.41
979.109	-11.78
979.312	-9.74
979.515	-10.06
979.718	-9.92
979.921	-9.85
980.124	-11.22
980.327	-11.49
980.53	-11.45
980.733	-8.82
980.936	-5.72
981.138	-8.47
981.341	-7.79
981.544	-7.51
981.747	-8.14
981.949	-8.78
982.152	-7.73
982.355	-6.26
982.558	-3.27
982.76	-6.44
982.963	-5.07
983.165	-4.78
983.368	-2.86
983.571	-4.13
983.773	-1.4
983.976	-2.11
984.178	-1.48
984.381	-2.23
984.583	-4.16
984.785	-4.87
984.988	-2.53
985.19	-2.37
985.392	-5.4
985.595	-9.11
985.797	-8.63
985.999	-6.49
986.202	-5.93
986.404	-5.92
986.606	-2.78
986.808	-5.4
987.01	-3.81
987.212	-5.13
987.415	-5.78
987.617	-6.57
987.819	-8.31
988.021	-6.97
988.223	-8.38
988.425	-9.84
988.627	-11.21
988.829	-14.43
989.031	-11.7
989.232	-13.86
989.434	-12.69
989.636	-13.46
989.838	-12.31
990.04	-11.38
990.242	-11.36
990.443	-14.05
990.645	-11.3
990.847	-10.07
991.048	-9.29
991.25	-11.07
991.452	-12.07
991.653	-12.12
991.855	-10.66
992.057	-11.65
992.258	-11.39
992.46	-10.97
992.661	-10.54
992.863	-12.74
993.064	-10
993.265	-12.47
993.467	-15.23
993.668	-12.11
993.87	-10.9
994.071	-10.39
994.272	-10.46
994.473	-8.61
994.675	-7.92
994.876	-6.43
995.077	-6
995.278	-6.26
995.48	-4.81
995.681	-7.14
995.882	-5.72
996.083	-7.48
996.284	-11.15
996.485	-11.41
996.686	-12.11
996.887	-13.36
997.088	-16.4
997.289	-18.19
997.49	-19.27
997.691	-19.15
997.892	-17.78
998.092	-13.6
998.293	-12.74
998.494	-14.39
998.695	-15.81
998.896	-14.29
999.096	-14.48
999.297	-15.06
999.498	-17.02
999.698	-17.99
999.899	-22.07
1000.1	-24.83
1000.3	-24
1000.501	-24.43
1000.701	-24.14
1000.902	-25.26
1001.102	-25.8
1001.303	-23.65
1001.503	-25.48
1001.704	-25.58
1001.904	-26.16
1002.105	-26.57
1002.305	-26.24
1002.505	-27.88
1002.706	-28.17
1002.906	-27.58
1003.106	-28.81
1003.306	-27.84
1003.507	-24.88
1003.707	-25
1003.907	-22.11
1004.107	-21.05
1004.307	-24.13
1004.507	-23.82
1004.707	-22.95
1004.907	-23.92
1005.107	-24.04
1005.308	-24.4
1005.507	-24.92
1005.707	-21.62
1005.907	-21.69
1006.107	-18.3
1006.307	-17.58
1006.507	-18.64
1006.707	-17.09
1006.907	-17.21
1007.106	-17.72
1007.306	-18.5
1007.506	-18.1
1007.706	-17.34
1007.905	-19.25
1008.105	-18.49
1008.305	-19.66
1008.504	-18.54
1008.704	-13.11
1008.903	-11.91
1009.103	-10.56
1009.303	-11.58
1009.502	-9.76
1009.702	-12.1
1009.901	-12.03
1010.1	-16.17
1010.3	-15.96
1010.499	-16.93
1010.699	-17.93
1010.898	-19.82
1011.097	-18.49
1011.296	-18.71
1011.496	-18.7
1011.695	-18.85
1011.894	-20.47
1012.093	-17.15
1012.293	-17.78
1012.492	-18.06
1012.691	-17.16
1012.89	-18.94
1013.089	-22.94
1013.288	-20.91
1013.487	-19.37
1013.686	-21.23
1013.885	-22.33
1014.084	-21.47
1014.283	-21.4
1014.482	-22.09
1014.681	-22.14
1014.88	-25.91
1015.078	-24.42
1015.277	-26.37
1015.476	-27.67
1015.675	-29.6
1015.873	-29.26
1016.072	-30.04
1016.271	-26.11
1016.47	-30.24
1016.668	-28.92
1016.867	-30.4
1017.065	-31.05
1017.264	-30.96
1017.463	-31.1
1017.661	-31.27
1017.86	-31.38
1018.058	-29.94
1018.256	-32.93
1018.455	-33.36
1018.653	-31.96
1018.852	-32.45
1019.05	-34.4
1019.248	-34.4
1019.447	-36.81
1019.645	-37.29
1019.843	-39.27
1020.041	-37.76
1020.24	-37.96
1020.438	-35.52
1020.636	-35.4
1020.834	-37.4
1021.032	-35.74
1021.23	-38.38
1021.428	-36.65
1021.626	-31.15
1021.824	-30.18
1022.022	-29.94
1022.22	-27.61
1022.418	-27.62
1022.616	-27.18
1022.814	-27.14
1023.012	-27.58
1023.21	-25
1023.408	-25.84
1023.606	-26.42
1023.803	-21.21
1024.001	-20.78
1024.199	-25.02
1024.397	-22.44
1024.594	-22.96
1024.792	-25.01
1024.99	-23.61
1025.187	-21.92
1025.385	-17.52
1025.582	-16.11
1025.78	-16.81
1025.977	-14.37
1026.175	-13.92
1026.372	-13.36
1026.57	-15.12
1026.767	-13.86
1026.965	-12.57
1027.162	-12.05
1027.359	-10.83
1027.557	-10.71
1027.754	-14.62
1027.951	-15.52
1028.148	-14.13
1028.346	-16.8
1028.543	-19.39
1028.74	-19.01
1028.937	-21.73
1029.134	-21.34
1029.331	-22.02
1029.528	-22.12
1029.725	-23.28
1029.923	-27
1030.12	-23.39
1030.317	-21.33
1030.513	-20.78
1030.71	-18.67
1030.907	-16.01
1031.104	-16.66
1031.301	-17.99
1031.498	-18.79
1031.695	-19.84
1031.892	-18.9
1032.088	-18.58
1032.285	-20.65
1032.482	-21.45
1032.678	-24.59
1032.875	-26.72
1033.072	-27.71
1033.268	-28.14
1033.465	-28.11
1033.662	-30.16
1033.858	-29.74
1034.055	-29.76
1034.251	-28.35
1034.448	-27.26
1034.644	-26.6
1034.84	-23.19
1035.037	-20.53
1035.233	-20.31
1035.43	-18.68
1035.626	-19.75
1035.822	-19.37
1036.019	-20.51
1036.215	-26.06
1036.411	-25.25
1036.607	-26.67
1036.803	-29.94
1037	-31.01
1037.196	-32.08
1037.392	-33.14
1037.588	-35.27
1037.784	-34.83
1037.98	-37.01
1038.176	-38.47
1038.372	-38.26
1038.568	-36.09
1038.764	-32.45
1038.96	-29.29
1039.156	-29.16
1039.352	-30.64
1039.547	-29.25
1039.743	-28.23
1039.939	-26.96
1040.135	-27.61
1040.331	-29.15
1040.526	-27.51
1040.722	-28.56
1040.918	-30.69
1041.113	-33.99
1041.309	-33.93
1041.505	-37.81
1041.7	-37.09
1041.896	-36.69
1042.091	-37.06
1042.287	-35.59
1042.482	-35.57
1042.678	-35.84
1042.873	-34.66
1043.069	-35.36
1043.264	-35.37
1043.459	-32.9
1043.655	-31.84
1043.85	-31.58
1044.045	-29.31
1044.24	-28.5
1044.436	-26.61
1044.631	-28.69
1044.826	-30.89
1045.021	-34.57
1045.216	-34.96
