Data from led_4000k_2_FLMT021711__24__17-35-59-993.txt Node

Date: Tue Nov 05 17:35:59 CET 2024
User: Etudiants TP
Spectrometer: FLMT02171
Trigger mode: 0
Integration Time (sec): 1.000000E-1
Scans to average: 5
Electric dark correction enabled: true
Nonlinearity correction enabled: true
Boxcar width: 15
XAxis mode: Wavelengths
Number of Pixels in Spectrum: 3648
>>>>>Begin Spectral Data<<<<<
194.658	-65.59
194.923	-62.22
195.188	-50.9
195.453	-47.51
195.717	-37.63
195.982	-33.02
196.247	-29.09
196.512	-27.13
196.777	-23.3
197.042	-18.79
197.307	-16.13
197.572	-9.76
197.837	-9.11
198.101	-5.09
198.366	-0.79
198.631	2.24
198.896	12.76
199.161	21.83
199.425	32.92
199.69	45.27
199.955	47.81
200.22	46.62
200.484	49.31
200.749	51.64
201.014	54.87
201.278	56.56
201.543	59.64
201.807	61.62
202.072	66.81
202.337	69.72
202.601	72.69
202.866	72.87
203.13	75.89
203.395	73.77
203.659	73.98
203.924	71.19
204.189	71.85
204.453	73.77
204.717	75.99
204.982	77.41
205.246	78.95
205.511	81.1
205.775	80.87
206.04	87.66
206.304	88.66
206.568	89.56
206.833	89.28
207.097	88.08
207.361	90.64
207.626	93.92
207.89	94.25
208.154	95.99
208.419	97.45
208.683	96.28
208.947	99.22
209.211	98.83
209.476	100.56
209.74	101.56
210.004	102.5
210.268	103.04
210.532	106.6
210.796	106.3
211.061	108.14
211.325	108.61
211.589	107.58
211.853	109.14
212.117	109.83
212.381	110.27
212.645	110.04
212.909	108.56
213.173	106.86
213.437	107.51
213.701	106.41
213.965	106.51
214.229	101.47
214.493	100.45
214.757	100.45
215.021	101.3
215.285	106.15
215.549	107.88
215.813	104.29
216.077	103.99
216.34	105.23
216.604	103.51
216.868	105.56
217.132	106.24
217.396	106.08
217.659	105.62
217.923	102.04
218.187	101.33
218.451	99.79
218.714	95.75
218.978	96.27
219.242	97.19
219.505	98.57
219.769	99.98
220.033	100.4
220.296	102.14
220.56	103.15
220.824	102.28
221.087	104.48
221.351	102.87
221.614	101.4
221.878	102.95
222.142	102.3
222.405	101.67
222.669	104.47
222.932	100.52
223.196	98.35
223.459	94.21
223.722	95.13
223.986	96.01
224.249	95.35
224.513	95.47
224.776	97.25
225.04	97.12
225.303	95.47
225.566	94.46
225.83	96.45
226.093	99.09
226.356	98.31
226.62	97.17
226.883	100.42
227.146	101.71
227.409	101.02
227.673	99.03
227.936	98.16
228.199	98.42
228.462	97.42
228.725	96.65
228.989	95.06
229.252	95.48
229.515	101.16
229.778	99.91
230.041	98.53
230.304	96.06
230.567	97.33
230.83	94.65
231.093	97.18
231.356	97.93
231.619	104.3
231.882	103.27
232.145	103.21
232.408	102.2
232.671	101.33
232.934	100.21
233.197	98.09
233.46	97.78
233.723	100.08
233.986	98.9
234.249	97.45
234.512	98.58
234.775	103.49
235.037	101.37
235.3	102.06
235.563	102.84
235.826	103.75
236.089	106.97
236.351	105.59
236.614	107.49
236.877	107.51
237.14	111.73
237.402	110.21
237.665	104.96
237.928	104.79
238.19	104.35
238.453	106.43
238.716	106.56
238.978	106.79
239.241	105.96
239.503	109.61
239.766	104.72
240.029	103.37
240.291	108.56
240.554	108.22
240.816	107.6
241.079	108.85
241.341	108.94
241.604	108
241.866	105.4
242.129	106.71
242.391	108.51
242.653	107.98
242.916	106.81
243.178	107.58
243.441	107.15
243.703	107.73
243.965	105.47
244.228	105.45
244.49	106.07
244.752	107.25
245.015	108.82
245.277	110.02
245.539	110.72
245.801	111.59
246.064	111.16
246.326	109.77
246.588	109.85
246.85	113.03
247.112	115.01
247.374	116.99
247.637	117.74
247.899	117.33
248.161	116.56
248.423	111.95
248.685	113.17
248.947	113.13
249.209	111.87
249.471	113.2
249.733	114.99
249.995	115.09
250.257	114.05
250.519	112.3
250.781	116.4
251.043	113.68
251.305	115.45
251.567	117.75
251.829	117.29
252.091	117.44
252.353	113.18
252.615	113.23
252.876	110.23
253.138	107.44
253.4	104.25
253.662	104.41
253.924	106.14
254.185	107.48
254.447	107.17
254.709	107.55
254.971	107.71
255.232	108.56
255.494	107
255.756	104.36
256.017	105.62
256.279	107.22
256.541	105.36
256.802	104.63
257.064	105.44
257.326	104.89
257.587	105.32
257.849	105.04
258.11	107.32
258.372	108.27
258.633	109.08
258.895	106.91
259.156	106.07
259.418	105.25
259.679	100.42
259.941	97.9
260.202	99.81
260.464	101.78
260.725	101.16
260.987	100.28
261.248	100.42
261.509	99.61
261.771	98.87
262.032	101.19
262.293	101.25
262.555	102.01
262.816	100.37
263.077	98.18
263.338	95.49
263.6	96.86
263.861	96.97
264.122	96.8
264.383	98.44
264.645	99.86
264.906	98.18
265.167	98.77
265.428	98.26
265.689	100.48
265.95	97.72
266.211	98.2
266.473	97.85
266.734	95.83
266.995	93.69
267.256	94.61
267.517	96.28
267.778	99.27
268.039	100.23
268.3	100
268.561	98.33
268.822	102.18
269.083	100.7
269.344	99.61
269.604	99.7
269.865	100.82
270.126	97.65
270.387	99.89
270.648	101.77
270.909	102.04
271.17	101.29
271.43	98.05
271.691	94.71
271.952	94.12
272.213	96.06
272.473	93.04
272.734	94.98
272.995	97.87
273.256	99.23
273.516	102.46
273.777	98.24
274.038	101.88
274.298	100.65
274.559	99.24
274.82	103.7
275.08	105.12
275.341	107.4
275.601	106.05
275.862	105.49
276.122	107.56
276.383	108.03
276.643	110.51
276.904	108.82
277.164	112.49
277.425	112.88
277.685	116.61
277.946	115.87
278.206	116.91
278.467	117.36
278.727	117.68
278.987	116.46
279.248	114.77
279.508	117.74
279.768	120.16
280.029	120.55
280.289	116.91
280.549	116.98
280.81	116.5
281.07	115.2
281.33	116.87
281.59	114.29
281.851	118.62
282.111	118.88
282.371	117.86
282.631	119.32
282.891	117.16
283.151	116.53
283.412	114.12
283.672	113.23
283.932	112.56
284.192	113.4
284.452	110.65
284.712	107.71
284.972	106.62
285.232	104.31
285.492	106.48
285.752	103.77
286.012	110.45
286.272	111.78
286.532	108.51
286.792	108
287.052	109.84
287.312	111.74
287.571	110.66
287.831	111.59
288.091	109.46
288.351	109.82
288.611	113.08
288.871	112.59
289.13	113.34
289.39	107.75
289.65	110.19
289.91	106.85
290.17	108.69
290.429	110.74
290.689	108.25
290.949	105.62
291.208	106.9
291.468	110.82
291.728	112.5
291.987	114.56
292.247	112.26
292.506	115.63
292.766	119.2
293.026	118.37
293.285	118.53
293.545	120.96
293.804	120.83
294.064	117.68
294.323	116.02
294.583	116.64
294.842	118.26
295.102	119.28
295.361	120.47
295.621	120.98
295.88	120.69
296.139	120.61
296.399	122.65
296.658	118.7
296.917	119.87
297.177	116.62
297.436	119.95
297.695	117.88
297.955	120.26
298.214	117.91
298.473	118.07
298.732	122.86
298.992	126.57
299.251	125.59
299.51	120.91
299.769	122.19
300.028	122.57
300.287	122.06
300.547	122.46
300.806	120.77
301.065	124.43
301.324	126.59
301.583	123.24
301.842	119.77
302.101	116.66
302.36	118.36
302.619	119.4
302.878	118.23
303.137	115.29
303.396	115.91
303.655	117.29
303.914	115.77
304.173	117.33
304.432	116.8
304.691	119.18
304.95	115.03
305.208	120.29
305.467	120.46
305.726	119.65
305.985	120.17
306.244	121.57
306.503	122.5
306.761	119.97
307.02	116.96
307.279	117.62
307.537	118.75
307.796	115.13
308.055	112.49
308.314	114.92
308.572	112.92
308.831	113.39
309.09	113.3
309.348	114.93
309.607	114.06
309.865	120.18
310.124	119.91
310.382	120.6
310.641	121.27
310.9	119.73
311.158	121.46
311.417	120.09
311.675	121.41
311.933	121.05
312.192	121.78
312.45	121.27
312.709	122.16
312.967	123.01
313.226	122.5
313.484	121.17
313.742	121.14
314.001	119.74
314.259	118.63
314.517	119.71
314.776	121.69
315.034	125.07
315.292	123.66
315.55	123.72
315.809	123.39
316.067	123.93
316.325	122.2
316.583	123.59
316.841	122.89
317.1	119.61
317.358	115.81
317.616	115.89
317.874	113
318.132	113.72
318.39	112.54
318.648	111.51
318.906	111.76
319.164	110.63
319.422	110.94
319.68	108.57
319.938	109.67
320.196	109.67
320.454	110.93
320.712	110.28
320.97	109.32
321.228	107.21
321.486	108.36
321.744	109.66
322.002	110.65
322.26	108.99
322.517	107.31
322.775	103.73
323.033	100.62
323.291	104.36
323.549	105.55
323.806	107.67
324.064	107.73
324.322	109.91
324.58	109.06
324.837	110.63
325.095	109.75
325.353	111.54
325.61	114.44
325.868	114.34
326.126	116.03
326.383	115.02
326.641	114.94
326.898	116.88
327.156	117.14
327.413	117.73
327.671	117.86
327.928	119.43
328.186	119.23
328.443	117.01
328.701	119.94
328.958	122.95
329.216	123.96
329.473	122.8
329.731	124.5
329.988	124.34
330.245	127.27
330.503	129.04
330.76	131.06
331.017	135.16
331.275	131.06
331.532	129.94
331.789	127.22
332.047	126.78
332.304	123.08
332.561	123.43
332.818	123.88
333.076	127.63
333.333	128.42
333.59	127.73
333.847	129.3
334.104	128.34
334.361	128.01
334.618	126.41
334.876	124.83
335.133	126.27
335.39	123.82
335.647	125.38
335.904	121.74
336.161	119.01
336.418	121.22
336.675	117.06
336.932	118.77
337.189	117.89
337.446	119.23
337.703	116.56
337.96	112.27
338.216	111.68
338.473	109.45
338.73	109.06
338.987	108.61
339.244	112.46
339.501	110.79
339.757	112.06
340.014	113.09
340.271	114.57
340.528	115.64
340.785	119.2
341.041	116.88
341.298	115.01
341.555	114.39
341.811	113.72
342.068	110.89
342.325	111.32
342.581	114.31
342.838	116.37
343.094	115.77
343.351	116.5
343.608	114.59
343.864	118.28
344.121	120.48
344.377	119.43
344.634	120.93
344.89	119.34
345.147	118.73
345.403	117.91
345.66	118.56
345.916	122.38
346.172	120.69
346.429	119.01
346.685	117.79
346.942	117.37
347.198	113.3
347.454	114.25
347.711	114.73
347.967	112.99
348.223	114.58
348.48	113.25
348.736	115.32
348.992	114.13
349.248	115.91
349.504	116.87
349.761	117.55
350.017	118.99
350.273	118.77
350.529	117.87
350.785	116.75
351.041	116.55
351.297	119.28
351.554	117.87
351.81	116.07
352.066	115.37
352.322	115.76
352.578	115.99
352.834	114.32
353.09	115.26
353.346	115.7
353.602	115.14
353.858	114.65
354.114	113.41
354.369	115.36
354.625	117.31
354.881	114.64
355.137	117.58
355.393	117.74
355.649	118.36
355.905	119.82
356.16	118.4
356.416	119.52
356.672	113.07
356.928	116.86
357.183	116.6
357.439	115.25
357.695	114.04
357.951	119.77
358.206	119.99
358.462	119.97
358.718	119.69
358.973	121.08
359.229	120.09
359.484	121.61
359.74	123.64
359.996	122.56
360.251	125.69
360.507	124.21
360.762	124.52
361.018	126.47
361.273	124.31
361.529	125.65
361.784	124.94
362.04	127.08
362.295	127.31
362.55	127.88
362.806	132
363.061	132.44
363.316	133.07
363.572	134.03
363.827	134.94
364.082	135.12
364.338	134.77
364.593	135.48
364.848	134.51
365.104	133.79
365.359	136.99
365.614	137.4
365.869	133.43
366.124	133.86
366.38	133.15
366.635	134.24
366.89	134.44
367.145	134.78
367.4	138.39
367.655	138.92
367.91	141.47
368.165	140.01
368.42	138.61
368.675	139.95
368.93	139.49
369.185	137.67
369.44	138.52
369.695	142.15
369.95	140.82
370.205	139.27
370.46	138.52
370.715	137.82
370.97	139.07
371.225	139.5
371.48	141.11
371.734	142.82
371.989	141.64
372.244	142
372.499	142.67
372.754	142.31
373.008	140.76
373.263	137.26
373.518	140.26
373.773	138.83
374.027	138.56
374.282	139.88
374.537	141.75
374.791	143.86
375.046	142.92
375.301	140.82
375.555	140.29
375.81	141.32
376.064	140.36
376.319	143.88
376.573	143.37
376.828	141.36
377.082	147.78
377.337	144.87
377.591	142.22
377.846	145.41
378.1	149.62
378.355	149.88
378.609	148.95
378.863	146.02
379.118	147.51
379.372	146.29
379.627	144.16
379.881	144.72
380.135	143.95
380.389	144.31
380.644	145.11
380.898	145.25
381.152	148.51
381.407	147.81
381.661	150.23
381.915	152.28
382.169	153.35
382.423	150.29
382.677	147.19
382.932	149.09
383.186	150.37
383.44	149.62
383.694	151.91
383.948	151.47
384.202	150.37
384.456	152.83
384.71	153.9
384.964	150.99
385.218	153.9
385.472	154.21
385.726	152.94
385.98	152.23
386.234	152.36
386.488	149.4
386.742	151.21
386.996	150.32
387.249	150.68
387.503	153.54
387.757	154.66
388.011	156.23
388.265	157.31
388.518	158.75
388.772	162.17
389.026	163.3
389.28	161.1
389.533	159.42
389.787	161.6
390.041	159.83
390.295	161.82
390.548	163.09
390.802	166.79
391.055	166.13
391.309	167.87
391.563	168.31
391.816	170.12
392.07	169.42
392.323	170.26
392.577	172.98
392.83	175.82
393.084	184.46
393.337	189.85
393.591	192.5
393.844	194.12
394.098	199.55
394.351	206.63
394.604	210.05
394.858	213.9
395.111	217.08
395.364	215.89
395.618	220.29
395.871	221.41
396.124	222.27
396.378	224.06
396.631	226.52
396.884	225.56
397.137	229.73
397.391	235.79
397.644	237.03
397.897	242.51
398.15	247.07
398.403	253.94
398.657	254.94
398.91	260
399.163	265.34
399.416	270.06
399.669	274.8
399.922	283.04
400.175	289.14
400.428	296.95
400.681	305.26
400.934	306.59
401.187	313.34
401.44	322.05
401.693	330.31
401.946	335.79
402.199	341.71
402.452	352.91
402.704	360.41
402.957	370.83
403.21	385.84
403.463	398.82
403.716	414.62
403.969	431.08
404.221	446.19
404.474	464.29
404.727	484.66
404.98	503.36
405.232	519.69
405.485	540.25
405.738	562.15
405.99	582.59
406.243	602.07
406.496	625.83
406.748	647.24
407.001	668.62
407.253	691.77
407.506	716.79
407.759	741.48
408.011	763.61
408.264	788.32
408.516	815.09
408.769	840.2
409.021	871.71
409.274	901.35
409.526	932.94
409.778	962.96
410.031	998.56
410.283	1030.68
410.536	1070.63
410.788	1104.31
411.04	1137.99
411.293	1175.78
411.545	1211.73
411.797	1248.3
412.049	1285.45
412.302	1325.87
412.554	1366.47
412.806	1408.61
413.058	1449.74
413.311	1494.52
413.563	1537.86
413.815	1583.82
414.067	1630.73
414.319	1679.84
414.571	1730.41
414.823	1779.33
415.075	1830.32
415.328	1886.62
415.58	1943.28
415.832	2004.37
416.084	2063.14
416.336	2118.46
416.588	2184.27
416.84	2241.91
417.091	2307.86
417.343	2366.01
417.595	2434.66
417.847	2501.83
418.099	2569.91
418.351	2639.82
418.603	2713.67
418.855	2789.3
419.106	2866.58
419.358	2945.27
419.61	3026.92
419.862	3112.63
420.114	3191.22
420.365	3277.13
420.617	3363.27
420.869	3447.71
421.12	3530.95
421.372	3621.9
421.624	3711.5
421.875	3803.48
422.127	3894.06
422.379	3991.61
422.63	4095.46
422.882	4191.83
423.133	4297.71
423.385	4410.85
423.636	4517.63
423.888	4631.78
424.139	4745.8
424.391	4850.79
424.642	4970.1
424.894	5086.68
425.145	5216.06
425.396	5335.8
425.648	5460.74
425.899	5587.77
426.151	5714.02
426.402	5853.02
426.653	5990.37
426.905	6118.59
427.156	6258.22
427.407	6402.19
427.658	6543.3
427.91	6684.42
428.161	6839.96
428.412	6992.42
428.663	7155.49
428.914	7326.94
429.166	7482.14
429.417	7659.82
429.668	7829.91
429.919	8004.12
430.17	8180.7
430.421	8348.3
430.672	8538.54
430.923	8723.65
431.174	8896.77
431.425	9092.68
431.676	9276.3
431.927	9476.77
432.178	9691.05
432.429	9896.82
432.68	10110.27
432.931	10329.9
433.182	10552.86
433.433	10775.75
433.683	11014.37
433.934	11254.18
434.185	11482.28
434.436	11731.05
434.687	11986.79
434.937	12246.34
435.188	12503.55
435.439	12779.98
435.69	13070.71
435.94	13352.76
436.191	13636.32
436.442	13928.34
436.692	14227.51
436.943	14550.8
437.194	14846.24
437.444	15157.96
437.695	15473.69
437.945	15824.8
438.196	16159.04
438.447	16496.87
438.697	16841.63
438.948	17205.06
439.198	17560.17
439.449	17922.91
439.699	18298.69
439.949	18660.26
440.2	19039.61
440.45	19445.55
440.701	19850.21
440.951	20256.99
441.201	20686.26
441.452	21100.82
441.702	21524.07
441.952	21967.8
442.203	22416.77
442.453	22872.55
442.703	23349.99
442.953	23834.18
443.204	24335.5
443.454	24820.43
443.704	25289.17
443.954	25813.99
444.204	26360.48
444.455	26881.2
444.705	27427.28
444.955	27984.14
445.205	28518.02
445.455	29106.95
445.705	29696.91
445.955	30280.13
446.205	30884.47
446.455	31500.84
446.705	32131.22
446.955	32763.13
447.205	33403.83
447.455	34042.96
447.705	34649.59
447.955	35320
448.205	35975.36
448.454	36655.3
448.704	37317.27
448.954	37963.14
449.204	38595.08
449.454	39267.91
449.704	39933.89
449.953	40593.08
450.203	41254.84
450.453	41910.16
450.703	42565.66
450.952	43146.45
451.202	43763.43
451.452	44395.01
451.701	44948.87
451.951	45497.11
452.201	46068.75
452.45	46611.83
452.7	47112.76
452.949	47683.41
453.199	48187.86
453.448	48637.69
453.698	49141.84
453.947	49562.89
454.197	49928.1
454.446	50289.05
454.696	50634.54
454.945	50959.76
455.195	51239.16
455.444	51539.65
455.693	51773.31
455.943	51906.92
456.192	52057.13
456.442	52176.55
456.691	52311.36
456.94	52408.98
457.189	52442.22
457.439	52468.23
457.688	52458.42
457.937	52417.86
458.186	52321.88
458.436	52186.6
458.685	52107.1
458.934	51948.48
459.183	51767.8
459.432	51619.01
459.681	51401.96
459.93	51141.19
460.179	50890.3
460.429	50646.96
460.678	50364.3
460.927	50046.21
461.176	49711.65
461.425	49319.5
461.674	49025.72
461.923	48740.71
462.172	48423.39
462.42	48067.39
462.669	47716.43
462.918	47362.13
463.167	47026.49
463.416	46661.56
463.665	46419.09
463.914	46044.79
464.162	45749.81
464.411	45362.4
464.66	45026.6
464.909	44705.03
465.158	44380.86
465.406	44032.27
465.655	43731.36
465.904	43430.62
466.152	43137.11
466.401	42838.29
466.65	42573.4
466.898	42298.15
467.147	42017.49
467.395	41763.35
467.644	41539.27
467.893	41267.76
468.141	41050.39
468.39	40768.83
468.638	40524.93
468.887	40300.42
469.135	40104.03
469.384	39856.84
469.632	39604.56
469.88	39368
470.129	39183.47
470.377	38972.94
470.626	38770.14
470.874	38556.58
471.122	38377.7
471.371	38116.1
471.619	37962.51
471.867	37759.19
472.115	37602.08
472.364	37462.84
472.612	37294.05
472.86	37118.35
473.108	36989.44
473.356	36822.11
473.605	36677.49
473.853	36547.76
474.101	36400.93
474.349	36245.3
474.597	36124.5
474.845	36001.88
475.093	35876.85
475.341	35736.64
475.589	35639.67
475.837	35507.19
476.085	35413.08
476.333	35315.37
476.581	35215.25
476.829	35142.21
477.077	35050.61
477.325	34992.44
477.573	34924.06
477.821	34846.43
478.069	34787.35
478.317	34757.26
478.564	34726.22
478.812	34675.8
479.06	34668.18
479.308	34631.58
479.555	34610.66
479.803	34627.44
480.051	34620.91
480.299	34625.84
480.546	34639.87
480.794	34644.79
481.042	34651.59
481.289	34672.05
481.537	34696.17
481.784	34727.35
482.032	34786.45
482.28	34829.38
482.527	34886.01
482.775	34949.32
483.022	35048.59
483.27	35118.76
483.517	35223.88
483.765	35358.93
484.012	35467.01
484.259	35598.37
484.507	35703.68
484.754	35830.52
485.002	35952.21
485.249	36054.99
485.496	36168.93
485.744	36322.67
485.991	36451.22
486.238	36586.28
486.486	36726.56
486.733	36884.3
486.98	37024.91
487.227	37170.91
487.474	37300.34
487.722	37460.2
487.969	37625.31
488.216	37795.94
488.463	37974.73
488.71	38160.55
488.957	38351.37
489.204	38539.4
489.451	38716.7
489.699	38899.68
489.946	39092.86
490.193	39272.05
490.44	39487.22
490.687	39655.96
490.934	39856.04
491.18	40042.18
491.427	40190.32
491.674	40397.03
491.921	40579.96
492.168	40774.29
492.415	40968.55
492.662	41164.45
492.909	41385.35
493.155	41606.67
493.402	41790.18
493.649	41997.96
493.896	42202.47
494.142	42425.79
494.389	42636.37
494.636	42852.04
494.883	43075.81
495.129	43306.6
495.376	43503.69
495.623	43716.24
495.869	43926.73
496.116	44128.78
496.362	44336.47
496.609	44543.78
496.855	44760.69
497.102	44981.81
497.348	45193.1
497.595	45407.82
497.841	45619.59
498.088	45808.88
498.334	46029.9
498.581	46219.44
498.827	46413.49
499.074	46610.65
499.32	46793.7
499.566	46995.69
499.813	47194.92
500.059	47369.05
500.305	47551.6
500.552	47733.21
500.798	47909.33
501.044	48105.9
501.29	48289.94
501.537	48490.46
501.783	48677.16
502.029	48855.31
502.275	49045.99
502.521	49240.79
502.767	49416.22
503.013	49601.26
503.26	49786.24
503.506	49960.23
503.752	50147.27
503.998	50334.12
504.244	50509.35
504.49	50668.49
504.736	50857.1
504.982	51016.54
505.228	51182.09
505.474	51333.34
505.72	51492.55
505.966	51637.97
506.211	51798.75
506.457	51937.45
506.703	52091.36
506.949	52236.32
507.195	52403.89
507.441	52536.31
507.686	52714.28
507.932	52869.96
508.178	53031.18
508.424	53176.24
508.669	53325.04
508.915	53467.44
509.161	53597.43
509.406	53723.78
509.652	53849.54
509.898	53985.72
510.143	54089.46
510.389	54201.03
510.634	54325.05
510.88	54437.15
511.125	54546.9
511.371	54651.11
511.616	54745.54
511.862	54826.33
512.107	54924.47
512.353	55001.05
512.598	55111.98
512.844	55205.55
513.089	55326.5
513.335	55431.33
513.58	55535.82
513.825	55653.64
514.071	55779.55
514.316	55899.8
514.561	56029.26
514.806	56121.19
515.052	56245.3
515.297	56349.07
515.542	56461.13
515.787	56562.39
516.033	56683.53
516.278	56782.56
516.523	56882.86
516.768	56986.37
517.013	57074.05
517.258	57159.98
517.503	57242.64
517.748	57334.67
517.993	57429.79
518.238	57502.3
518.483	57578.72
518.728	57660.22
518.973	57736.21
519.218	57811.73
519.463	57894.35
519.708	57969.43
519.953	58057.97
520.198	58117.16
520.443	58193.09
520.688	58261.71
520.933	58325.15
521.177	58400.17
521.422	58464.43
521.667	58529.54
521.912	58590.84
522.157	58649.59
522.401	58708.08
522.646	58764.42
522.891	58813.1
523.135	58863.75
523.38	58915.62
523.625	58958.13
523.869	59001.88
524.114	59051.68
524.358	59089.44
524.603	59143.19
524.848	59193.94
525.092	59243.98
525.337	59287.16
525.581	59335.26
525.826	59384.73
526.07	59433.15
526.315	59474.89
526.559	59522.73
526.803	59570.42
527.048	59628.06
527.292	59669.81
527.537	59707.39
527.781	59763.06
528.025	59801.23
528.269	59835.86
528.514	59877.37
528.758	59904.84
529.002	59926.08
529.247	59950.03
529.491	59962.15
529.735	59980.34
529.979	59994.78
530.223	60002.64
530.467	60005.61
530.712	60016.61
530.956	60027.45
531.2	60036.93
531.444	60056.72
531.688	60070.44
531.932	60093.87
532.176	60114.68
532.42	60133.75
532.664	60145.56
532.908	60169.04
533.152	60190.86
533.396	60209.5
533.64	60223.73
533.884	60249.69
534.128	60269.64
534.371	60298.55
534.615	60325.35
534.859	60356.18
535.103	60375.56
535.347	60398.95
535.59	60427.68
535.834	60449.19
536.078	60476.14
536.322	60499.38
536.565	60529.41
536.809	60550.23
537.053	60594.86
537.296	60622.16
537.54	60660.7
537.784	60705.8
538.027	60750.26
538.271	60784.99
538.514	60824.94
538.758	60859.85
539.001	60888.9
539.245	60927.77
539.488	60961.55
539.732	60984.48
539.975	61014.69
540.219	61042.14
540.462	61064.53
540.706	61086.79
540.949	61105.97
541.192	61131.57
541.436	61151.54
541.679	61176.6
541.922	61186.82
542.166	61190.32
542.409	61210.39
542.652	61229.16
542.895	61245.08
543.139	61256.83
543.382	61273.33
543.625	61283.38
543.868	61301.51
544.111	61312.23
544.354	61330.71
544.598	61338.18
544.841	61344.74
545.084	61348.32
545.327	61353.79
545.57	61355.64
545.813	61361.9
546.056	61358.78
546.299	61366.45
546.542	61374.42
546.785	61370.84
547.028	61381.21
547.271	61389.8
547.514	61398.04
547.756	61415.68
547.999	61437.47
548.242	61453.33
548.485	61477.59
548.728	61503.87
548.971	61524.36
549.213	61546.44
549.456	61572.72
549.699	61602.26
549.942	61619.73
550.184	61640.41
550.427	61656.27
550.67	61679.11
550.912	61691.13
551.155	61711.03
551.398	61729.04
551.64	61748.18
551.883	61768.03
552.125	61792.13
552.368	61809.88
552.61	61830.06
552.853	61846.05
553.095	61868.55
553.338	61882.45
553.58	61903.43
553.823	61921.58
554.065	61937.05
554.308	61958.26
554.55	61971.84
554.792	61978.58
555.035	61993.37
555.277	61997.39
555.519	62004.5
555.762	62008
556.004	62015.57
556.246	62015.89
556.488	62023.02
556.731	62020.79
556.973	62025.63
557.215	62027
557.457	62040.37
557.699	62045.53
557.941	62064.56
558.183	62072.82
558.426	62099.87
558.668	62113.94
558.91	62135.78
559.152	62158.77
559.394	62180.87
559.636	62199.09
559.878	62225.52
560.12	62249.76
560.362	62276.18
560.604	62301.24
560.845	62330.69
561.087	62355.91
561.329	62383.51
561.571	62410.1
561.813	62440.84
562.055	62463.85
562.297	62501.18
562.538	62526.7
562.78	62559.58
563.022	62590.17
563.264	62622.54
563.505	62652.94
563.747	62688.52
563.989	62721.79
564.23	62760.44
564.472	62800.09
564.714	62843.2
564.955	62880.81
565.197	62924.42
565.438	62959.07
565.68	62999.92
565.921	63033.04
566.163	63072.43
566.404	63106.98
566.646	63139.24
566.887	63169.46
567.129	63202.82
567.37	63232.33
567.612	63263.69
567.853	63293.53
568.094	63323.21
568.336	63351.81
568.577	63382.35
568.818	63407.63
569.06	63436.03
569.301	63459.21
569.542	63487.29
569.783	63509.65
570.025	63535.09
570.266	63556.93
570.507	63578.73
570.748	63601.67
570.989	63622.28
571.23	63641.25
571.472	63659.52
571.713	63674.24
571.954	63687.3
572.195	63695.84
572.436	63705.01
572.677	63710.13
572.918	63717.6
573.159	63721.16
573.4	63724.78
573.641	63726.38
573.882	63727.8
574.123	63729.07
574.364	63728.92
574.604	63729.99
574.845	63729.35
575.086	63728.98
575.327	63728.07
575.568	63726.38
575.809	63724.62
576.049	63722.49
576.29	63720.03
576.531	63718.05
576.771	63716.24
577.012	63713.49
577.253	63710.29
577.494	63707.32
577.734	63704.73
577.975	63700.94
578.215	63698.35
578.456	63693.96
578.697	63690.9
578.937	63687.38
579.178	63684.21
579.418	63679.9
579.659	63675.92
579.899	63672.77
580.14	63668.86
580.38	63663.89
580.62	63659.87
580.861	63656.24
581.101	63647.59
581.342	63641.7
581.582	63633.19
581.822	63626.71
582.063	63617.52
582.303	63610.72
582.543	63602.4
582.783	63594.82
583.024	63586.53
583.264	63576.43
583.504	63566.72
583.744	63557.99
583.984	63545.27
584.224	63531.39
584.465	63521
584.705	63506.54
584.945	63493.26
585.185	63477.41
585.425	63463.2
585.665	63441.31
585.905	63427.46
586.145	63409.46
586.385	63391.63
586.625	63375.01
586.865	63358.17
587.105	63338.56
587.345	63320.84
587.585	63302.29
587.824	63287.77
588.064	63271.45
588.304	63254.22
588.544	63243
588.784	63230.14
589.024	63219.32
589.263	63208.97
589.503	63196.96
589.743	63187.31
589.982	63174.79
590.222	63163.74
590.462	63152.69
590.701	63143.69
590.941	63139.14
591.181	63128.64
591.42	63127.95
591.66	63124.09
591.899	63119.5
592.139	63117.93
592.378	63115.48
592.618	63115.08
592.857	63117.1
593.097	63126.34
593.336	63130.28
593.576	63138.36
593.815	63146
594.055	63157.57
594.294	63168.69
594.533	63185.75
594.773	63199.45
595.012	63219.5
595.251	63234.74
595.491	63254.93
595.73	63275.28
595.969	63296.11
596.208	63316.47
596.447	63337.6
596.687	63356.39
596.926	63378.99
597.165	63397.55
597.404	63420.57
597.643	63440.65
597.882	63462.19
598.121	63482.99
598.36	63499.1
598.599	63520.22
598.838	63534.28
599.077	63552.99
599.316	63569.05
599.555	63586.07
599.794	63602.9
600.033	63619.63
600.272	63633.33
600.511	63645.57
600.75	63657.12
600.989	63666.66
601.228	63674.56
601.466	63677.26
601.705	63678.78
601.944	63679.18
602.183	63675.07
602.422	63668.34
602.66	63657.99
602.899	63645.77
603.138	63629.92
603.376	63610.75
603.615	63588.47
603.854	63561.53
604.092	63533.15
604.331	63501.84
604.569	63466.3
604.808	63425.56
605.047	63383.57
605.285	63337.83
605.524	63291.88
605.762	63236.64
606	63186.99
606.239	63127.67
606.477	63072.57
606.716	63008.81
606.954	62944.98
607.193	62870.21
607.431	62799.73
607.669	62728.46
607.908	62654.37
608.146	62569.99
608.384	62486.32
608.622	62397.44
608.861	62300.12
609.099	62200.66
609.337	62098.14
609.575	61989.6
609.813	61879.9
610.052	61761.06
610.29	61633.39
610.528	61499.11
610.766	61369.52
611.004	61223.48
611.242	61084.72
611.48	60929.16
611.718	60781.67
611.956	60628.59
612.194	60472.99
612.432	60306.43
612.67	60139.08
612.908	59966.68
613.146	59800.96
613.384	59618.78
613.621	59441.89
613.859	59258.51
614.097	59069.23
614.335	58888.17
614.573	58718.96
614.811	58537.51
615.048	58352.15
615.286	58183.41
615.524	58007.26
615.761	57847.69
615.999	57681.83
616.237	57523.69
616.474	57355.47
616.712	57210.53
616.95	57053.37
617.187	56890.5
617.425	56733.28
617.662	56577.49
617.9	56424.71
618.137	56259.39
618.375	56090.85
618.612	55927.3
618.85	55771
619.087	55613.4
619.325	55441.92
619.562	55283.81
619.799	55128.62
620.037	54970.14
620.274	54795.44
620.511	54626.65
620.749	54467.45
620.986	54305.15
621.223	54117.86
621.461	53952.27
621.698	53765.64
621.935	53569.97
622.172	53373.27
622.409	53173.13
622.647	52948.72
622.884	52738.71
623.121	52513.99
623.358	52290.05
623.595	52056.16
623.832	51835.75
624.069	51577.09
624.306	51337.6
624.543	51098.45
624.78	50855.61
625.017	50616.98
625.254	50377.42
625.491	50129.69
625.728	49896.55
625.965	49663.5
626.202	49424.72
626.438	49168.2
626.675	48935.14
626.912	48685.06
627.149	48438.5
627.386	48193.5
627.622	47961.43
627.859	47707.56
628.096	47459.71
628.333	47200.56
628.569	46971.83
628.806	46724.72
629.043	46495.95
629.279	46263.47
629.516	46030.14
629.752	45803.9
629.989	45583.09
630.225	45351.7
630.462	45113.35
630.699	44876.01
630.935	44651.27
631.171	44422.05
631.408	44199.7
631.644	43957.03
631.881	43733.66
632.117	43510.62
632.354	43275.99
632.59	43051.72
632.826	42831.61
633.063	42617.27
633.299	42373.06
633.535	42130.7
633.771	41892.28
634.008	41657.59
634.244	41422.28
634.48	41191.31
634.716	40944.27
634.953	40702.97
635.189	40475.09
635.425	40262.51
635.661	40060.79
635.897	39832.76
636.133	39638.9
636.369	39420.35
636.605	39216.28
636.841	39023.47
637.077	38829.11
637.313	38628.42
637.549	38429.19
637.785	38240.06
638.021	38043.91
638.257	37839.4
638.493	37641.98
638.729	37440.84
638.965	37254.53
639.2	37043.58
639.436	36840.38
639.672	36647.73
639.908	36444.38
640.144	36244.08
640.379	36047.32
640.615	35860.46
640.851	35689.01
641.086	35514.82
641.322	35328.59
641.558	35140.66
641.793	34953.31
642.029	34781.74
642.264	34605.7
642.5	34429.89
642.736	34234.27
642.971	34044.19
643.207	33857.29
643.442	33658.74
643.678	33469.75
643.913	33264.03
644.148	33057.51
644.384	32856.38
644.619	32642.6
644.855	32456.07
645.09	32243.7
645.325	32044.09
645.561	31845.03
645.796	31635.38
646.031	31437.56
646.266	31238.21
646.502	31048.25
646.737	30858.12
646.972	30661.6
647.207	30468.19
647.442	30277.74
647.678	30081.83
647.913	29894.44
648.148	29705.95
648.383	29517.59
648.618	29335.73
648.853	29156.33
649.088	28991.59
649.323	28816.21
649.558	28639.19
649.793	28458.36
650.028	28277.59
650.263	28088.37
650.498	27919.8
650.733	27732.05
650.968	27551.97
651.202	27382.91
651.437	27201.06
651.672	27011.17
651.907	26846.91
652.142	26662.7
652.376	26503.76
652.611	26340.23
652.846	26176.28
653.081	26019.68
653.315	25850.71
653.55	25688.21
653.785	25525.27
654.019	25353.26
654.254	25185.33
654.488	25018.04
654.723	24858.4
654.958	24690.72
655.192	24522.39
655.427	24354.4
655.661	24193.52
655.896	24032.44
656.13	23877.75
656.364	23695.19
656.599	23530.36
656.833	23369.98
657.068	23215.26
657.302	23051.37
657.536	22895.11
657.771	22740.85
658.005	22585.99
658.239	22431.95
658.474	22278.61
658.708	22135.46
658.942	21994.5
659.176	21844.48
659.41	21691.42
659.645	21535.92
659.879	21389.68
660.113	21241.36
660.347	21087.66
660.581	20946.94
660.815	20800.72
661.049	20655.63
661.283	20514.71
661.517	20371.77
661.751	20238.22
661.985	20096.12
662.219	19960.15
662.453	19821.52
662.687	19686.07
662.921	19550.02
663.155	19413.7
663.389	19269.23
663.622	19142.74
663.856	19012.91
664.09	18890.42
664.324	18759.15
664.558	18637.27
664.791	18507.36
665.025	18380.85
665.259	18254.48
665.492	18133.65
665.726	18005.54
665.96	17883.18
666.193	17752.18
666.427	17627.57
666.661	17506.87
666.894	17379.48
667.128	17249.95
667.361	17126.1
667.595	17006.69
667.828	16883.17
668.062	16765.56
668.295	16641.82
668.529	16526.21
668.762	16407.52
668.995	16282.02
669.229	16167.57
669.462	16053.54
669.695	15944.44
669.929	15822.27
670.162	15705.44
670.395	15586.9
670.629	15475.03
670.862	15360.88
671.095	15240.85
671.328	15113.39
671.561	14992.79
671.795	14874.05
672.028	14759.42
672.261	14637.48
672.494	14523.63
672.727	14398.94
672.96	14280.48
673.193	14153.17
673.426	14044.96
673.659	13923.76
673.892	13811.25
674.125	13693.09
674.358	13583.33
674.591	13468.59
674.824	13356.52
675.057	13245.37
675.29	13132.97
675.523	13030.72
675.755	12926.31
675.988	12827.16
676.221	12728.63
676.454	12625.33
676.687	12532.32
676.919	12433.9
677.152	12342.47
677.385	12246.55
677.617	12159.97
677.85	12070.88
678.083	11978.91
678.315	11894.05
678.548	11808.1
678.78	11722.93
679.013	11637.83
679.246	11554.79
679.478	11472.51
679.711	11383.84
679.943	11302.42
680.175	11218.59
680.408	11143.9
680.64	11053.63
680.873	10974.26
681.105	10890.9
681.338	10815.81
681.57	10730.48
681.802	10654.2
682.034	10572.24
682.267	10496
682.499	10425.27
682.731	10344.3
682.964	10265.17
683.196	10188.47
683.428	10112.22
683.66	10039.51
683.892	9963.43
684.124	9885.73
684.356	9812.76
684.589	9743.24
684.821	9665.37
685.053	9590.39
685.285	9515.62
685.517	9440.23
685.749	9371.36
685.981	9298.76
686.213	9226.14
686.445	9153.27
686.676	9077.32
686.908	9006.41
687.14	8933.48
687.372	8864.3
687.604	8787.32
687.836	8718.14
688.068	8650.63
688.299	8579.84
688.531	8513.38
688.763	8450.64
688.995	8382.28
689.226	8322.99
689.458	8253.7
689.69	8182.67
689.921	8118.34
690.153	8051.84
690.384	7988.04
690.616	7924.12
690.848	7856.1
691.079	7787.66
691.311	7723.85
691.542	7658.27
691.774	7590.7
692.005	7528.77
692.237	7471.68
692.468	7412.32
692.699	7351.92
692.931	7288.06
693.162	7228.43
693.393	7168.22
693.625	7111.26
693.856	7056.86
694.087	7003.65
694.319	6948.79
694.55	6893.56
694.781	6841.01
695.012	6788.96
695.243	6734.56
695.475	6683.52
695.706	6627.9
695.937	6574.24
696.168	6523.33
696.399	6464.54
696.63	6413.83
696.861	6362.8
697.092	6317.13
697.323	6271.37
697.554	6219.98
697.785	6166.19
698.016	6118.37
698.247	6065.19
698.478	6015.33
698.709	5965.85
698.94	5915.57
699.171	5863.77
699.401	5807.99
699.632	5754.34
699.863	5701.15
700.094	5649.98
700.325	5602.85
700.555	5552.7
700.786	5502.67
701.017	5452.86
701.247	5400.91
701.478	5352.07
701.709	5304.63
701.939	5253.52
702.17	5205.12
702.401	5161.36
702.631	5113.07
702.862	5065.7
703.092	5017.64
703.323	4972.41
703.553	4929.51
703.784	4885.36
704.014	4843.72
704.244	4793.75
704.475	4750.06
704.705	4708.69
704.936	4667.97
705.166	4628.24
705.396	4590.56
705.627	4548.64
705.857	4510.63
706.087	4471.79
706.317	4432.19
706.548	4392.41
706.778	4355.82
707.008	4322.83
707.238	4289.74
707.468	4252.39
707.698	4215.47
707.928	4181.15
708.158	4144.54
708.389	4110.78
708.619	4076.61
708.849	4043.53
709.079	4013.35
709.309	3980.67
709.539	3947.03
709.768	3916.91
709.998	3888.86
710.228	3858.39
710.458	3826.04
710.688	3794.69
710.918	3765.68
711.148	3732.62
711.378	3705.42
711.607	3672.25
711.837	3645.17
712.067	3618.11
712.297	3586.26
712.526	3555.44
712.756	3529.58
712.986	3497.14
713.215	3469.12
713.445	3442.15
713.674	3416.76
713.904	3389.19
714.134	3361.38
714.363	3328.79
714.593	3301.37
714.822	3273.24
715.052	3246.46
715.281	3220.46
715.511	3192.44
715.74	3167.39
715.969	3137.88
716.199	3111.62
716.428	3086.11
716.657	3058.71
716.887	3033.78
717.116	3004.19
717.345	2977.65
717.575	2952.72
717.804	2925.74
718.033	2897.95
718.262	2871.7
718.492	2844.92
718.721	2821.67
718.95	2793.95
719.179	2766.2
719.408	2741.78
719.637	2713.84
719.866	2688.26
720.095	2667.33
720.324	2640.75
720.553	2613.96
720.782	2589.33
721.011	2567.84
721.24	2543.55
721.469	2525.31
721.698	2504.71
721.927	2485.27
722.156	2462.33
722.385	2443.8
722.613	2428.69
722.842	2408.21
723.071	2391.19
723.3	2372.23
723.529	2351.04
723.757	2331.96
723.986	2307.08
724.215	2287.34
724.443	2271.47
724.672	2253.04
724.901	2235.31
725.129	2218.06
725.358	2203.64
725.586	2181.3
725.815	2162.36
726.043	2143.09
726.272	2125.75
726.5	2106.61
726.729	2090.63
726.957	2069.73
727.186	2048.48
727.414	2034.51
727.642	2017.2
727.871	2001.23
728.099	1982.11
728.327	1965.68
728.556	1950.68
728.784	1932.47
729.012	1914.81
729.241	1900.86
729.469	1884.07
729.697	1863.57
729.925	1847.42
730.153	1831.28
730.381	1814.94
730.61	1798.06
730.838	1781.33
731.066	1768.25
731.294	1755.04
731.522	1737.43
731.75	1719.05
731.978	1704.19
732.206	1688.4
732.434	1672.69
732.662	1661.81
732.89	1643.07
733.118	1630.32
733.346	1615.9
733.573	1601.4
733.801	1589.2
734.029	1583.07
734.257	1570.58
734.485	1560.28
734.712	1550.13
734.94	1536.41
735.168	1525.65
735.396	1513.19
735.623	1497.56
735.851	1485.32
736.078	1473.46
736.306	1461.42
736.534	1448.36
736.761	1436.29
736.989	1421.9
737.216	1408.73
737.444	1395.16
737.671	1385.06
737.899	1376.16
738.126	1364.03
738.354	1352.63
738.581	1341.12
738.809	1331.06
739.036	1318.3
739.263	1308.11
739.491	1295.21
739.718	1284.66
739.945	1280.76
740.173	1269.15
740.4	1259.08
740.627	1248.93
740.854	1237.46
741.081	1222.96
741.309	1212.45
741.536	1197.27
741.763	1184.67
741.99	1174.48
742.217	1163.81
742.444	1152.73
742.671	1143.38
742.898	1133.98
743.125	1121.07
743.352	1106.93
743.579	1095.69
743.806	1085.48
744.033	1079.04
744.26	1071.3
744.487	1061.39
744.714	1051.74
744.941	1042.22
745.167	1036.31
745.394	1025.2
745.621	1015.39
745.848	1005.9
746.075	1000.68
746.301	995.36
746.528	990.68
746.755	981.17
746.981	970.75
747.208	964.67
747.435	959.57
747.661	952.16
747.888	947.13
748.114	939.75
748.341	935.33
748.567	931.6
748.794	925.53
749.02	921.29
749.247	913.68
749.473	908.75
749.7	904.27
749.926	899.48
750.152	900.1
750.379	897.14
750.605	892.56
750.831	887.59
751.058	881.75
751.284	874.72
751.51	873.46
751.737	870.66
751.963	864.67
752.189	858.69
752.415	855.34
752.641	850.43
752.867	845.96
753.094	838.69
753.32	832.78
753.546	827.16
753.772	823.66
753.998	818.78
754.224	813.79
754.45	808.01
754.676	803.03
754.902	795.98
755.128	790.2
755.354	784.1
755.579	779.6
755.805	776.57
756.031	769.34
756.257	762.48
756.483	753.66
756.709	744.91
756.934	736.66
757.16	727.78
757.386	722.19
757.612	713.91
757.837	706.58
758.063	701.78
758.289	697.92
758.514	690.27
758.74	679.76
758.965	671.85
759.191	667.24
759.416	660.11
759.642	654.48
759.868	649.37
760.093	644.2
760.318	634.94
760.544	626.81
760.769	619.96
760.995	613.51
761.22	605.52
761.445	600.05
761.671	595.36
761.896	591.69
762.121	585.8
762.347	578.82
762.572	569.41
762.797	561.12
763.022	554.52
763.248	554.48
763.473	548.81
763.698	542.74
763.923	538.97
764.148	533.11
764.373	526.34
764.598	523.32
764.823	519.59
765.048	511.57
765.273	503.69
765.498	496.62
765.723	492.84
765.948	489.43
766.173	483.6
766.398	481.25
766.623	474.47
766.848	469.44
767.073	464.04
767.298	460.13
767.522	455.63
767.747	452.23
767.972	447.55
768.197	446.22
768.421	440.45
768.646	433.24
768.871	426.59
769.095	422.77
769.32	418.97
769.545	415.85
769.769	414.12
769.994	412.73
770.218	406.13
770.443	406.16
770.667	404.91
770.892	403.32
771.116	399.07
771.341	397.81
771.565	395.51
771.79	393.1
772.014	389.93
772.238	385.28
772.463	384.73
772.687	381.75
772.911	378.35
773.136	372.18
773.36	369.56
773.584	369.76
773.808	365.17
774.033	363.4
774.257	361.63
774.481	358.95
774.705	355.41
774.929	353.6
775.153	350.1
775.377	349.51
775.602	349.47
775.826	347.35
776.05	346.13
776.274	343.45
776.498	341.46
776.722	336.08
776.945	333.21
777.169	329.78
777.393	325.2
777.617	322.56
777.841	319.27
778.065	317.66
778.289	314.31
778.512	308.99
778.736	306.5
778.96	303.88
779.184	304.97
779.407	301.35
779.631	299.26
779.855	294.41
780.078	293.82
780.302	289.02
780.526	283.45
780.749	283.27
780.973	281.26
781.196	278.71
781.42	275.12
781.643	274.46
781.867	273.1
782.09	268.3
782.314	264.58
782.537	260.95
782.76	258.08
782.984	257.7
783.207	253.66
783.431	250.76
783.654	249.56
783.877	245.33
784.1	242.37
784.324	240.81
784.547	237.84
784.77	232.04
784.993	229.8
785.216	225.91
785.44	226.3
785.663	223.41
785.886	223.77
786.109	221.54
786.332	220.4
786.555	219.62
786.778	221.37
787.001	220.55
787.224	220.35
787.447	220.68
787.67	219.23
787.893	218.13
788.116	217
788.339	216.09
788.561	212.96
788.784	207.21
789.007	204.33
789.23	202.41
789.453	200.41
789.675	198.56
789.898	194.39
790.121	193.03
790.344	192.06
790.566	192.15
790.789	191.52
791.012	190.58
791.234	190.89
791.457	192.49
791.679	191.47
791.902	190.29
792.124	189.85
792.347	186.6
792.569	184.55
792.792	179.81
793.014	180.01
793.237	179.37
793.459	178.94
793.681	177.04
793.904	173.57
794.126	170.98
794.348	169.56
794.571	169.16
794.793	166.81
795.015	166.9
795.237	165.65
795.46	164.56
795.682	164.05
795.904	166.14
796.126	163.72
796.348	161.7
796.57	163.75
796.792	164.17
797.014	166.26
797.237	166.73
797.459	166.27
797.681	165.69
797.903	163.09
798.124	163.64
798.346	173.73
798.568	176.81
798.79	179.24
799.012	180.91
799.234	181.59
799.456	181.81
799.678	184.21
799.899	180.56
800.121	176.69
800.343	175.23
800.565	175.26
800.786	176.7
801.008	178.41
801.23	177.64
801.451	176.48
801.673	174.86
801.895	173.23
802.116	174.71
802.338	175.23
802.559	175.6
802.781	172.39
803.002	175.42
803.224	178.34
803.445	175.4
803.667	175.19
803.888	173.01
804.109	172.86
804.331	171.95
804.552	171.95
804.773	174.5
804.995	170.15
805.216	154.92
805.437	150.87
805.658	146.54
805.88	143.91
806.101	144.13
806.322	143.35
806.543	140.67
806.764	138.43
806.985	140.09
807.207	140.17
807.428	138.82
807.649	134.19
807.87	129.97
808.091	129.48
808.312	129.76
808.533	134.37
808.754	135.56
808.975	132.67
809.195	133.79
809.416	133.07
809.637	132.83
809.858	128.45
810.079	124.46
810.3	125.3
810.52	123.8
810.741	120.85
810.962	117.45
811.183	115.03
811.403	114.69
811.624	113.13
811.845	113.69
812.065	116.29
812.286	117.92
812.506	117.69
812.727	116.56
812.948	115.87
813.168	118.54
813.389	116.7
813.609	117.65
813.83	116.22
814.05	113.58
814.27	112.99
814.491	117
814.711	116.44
814.931	112.66
815.152	112.11
815.372	109.69
815.592	107.29
815.813	105.49
816.033	104.1
816.253	105.61
816.473	104.23
816.694	105.95
816.914	108.73
817.134	107.32
817.354	105.09
817.574	106.44
817.794	105.83
818.014	105.43
818.234	104.51
818.454	102.25
818.674	100.21
818.894	95.89
819.114	98.16
819.334	98.46
819.554	99.35
819.774	101.02
819.994	97.33
820.214	96.65
820.433	98.33
820.653	97.83
820.873	99.98
821.093	101.12
821.312	98.3
821.532	100.72
821.752	104.1
821.972	102.1
822.191	101.25
822.411	99.19
822.63	101.66
822.85	100.27
823.07	96.45
823.289	97.37
823.509	93.58
823.728	92.95
823.948	90.88
824.167	89.31
824.387	87.49
824.606	88.75
824.825	86.84
825.045	85.64
825.264	85.26
825.483	86.23
825.703	88.05
825.922	83.93
826.141	82.76
826.361	80.97
826.58	77.63
826.799	76.67
827.018	77.71
827.237	77.22
827.456	79
827.676	79.02
827.895	79.5
828.114	80.33
828.333	78.89
828.552	77.58
828.771	79.36
828.99	77.71
829.209	78.98
829.428	78.7
829.647	78.25
829.866	80.41
830.084	79.51
830.303	80.19
830.522	79.14
830.741	80.56
830.96	81.52
831.179	82.33
831.397	81.86
831.616	83.22
831.835	84.25
832.053	85.14
832.272	85.23
832.491	85.51
832.709	84.17
832.928	83.8
833.147	84.4
833.365	84.97
833.584	87.1
833.802	89.34
834.021	89.1
834.239	88.66
834.458	85.77
834.676	80.18
834.894	79.74
835.113	78.54
835.331	77.87
835.55	76.47
835.768	75.73
835.986	76.09
836.204	73.8
836.423	74.6
836.641	72.57
836.859	70.56
837.077	71.01
837.296	70.78
837.514	68.48
837.732	67.06
837.95	65.68
838.168	67.29
838.386	64.65
838.604	66.02
838.822	67.5
839.04	65.88
839.258	65.95
839.476	68.93
839.694	68.35
839.912	66.57
840.13	65.84
840.348	66.2
840.566	63.89
840.783	65.31
841.001	62.83
841.219	63.99
841.437	65.1
841.655	64.76
841.872	64.85
842.09	65.07
842.308	64.32
842.525	64.16
842.743	63.73
842.961	62.55
843.178	59.95
843.396	63.01
843.613	64.64
843.831	66.19
844.048	65.98
844.266	66.84
844.483	66.14
844.701	66.14
844.918	64.77
845.136	65.36
845.353	62.86
845.57	61.33
845.788	64.76
846.005	61.88
846.222	59.83
846.439	61.25
846.657	61.29
846.874	61.39
847.091	60.04
847.308	60.85
847.526	58.14
847.743	60
847.96	58.51
848.177	59.39
848.394	58.8
848.611	58.12
848.828	57.46
849.045	57.08
849.262	58.26
849.479	57.5
849.696	56.79
849.913	55.76
850.13	51.04
850.347	53.81
850.564	52.55
850.78	50.59
850.997	48.64
851.214	50.68
851.431	51.75
851.647	48.51
851.864	50.18
852.081	51.48
852.298	48.39
852.514	46.15
852.731	48.11
852.948	49.26
853.164	50.12
853.381	51
853.597	49.46
853.814	46.66
854.03	43.46
854.247	45.76
854.463	44.37
854.68	43.55
854.896	44.06
855.113	43.22
855.329	43.99
855.545	45.57
855.762	45.43
855.978	40.69
856.194	38.44
856.411	43.37
856.627	43.94
856.843	45.09
857.059	46.6
857.275	45.05
857.492	45.38
857.708	49.09
857.924	50.01
858.14	52.22
858.356	51.63
858.572	50.01
858.788	48.52
859.004	50.42
859.22	48.08
859.436	47.94
859.652	45.53
859.868	43.03
860.084	42.53
860.3	43.42
860.516	44.07
860.731	44.14
860.947	41.15
861.163	42.25
861.379	43.35
861.595	43.58
861.81	45.18
862.026	45.17
862.242	45.76
862.457	44.76
862.673	47.28
862.889	49.12
863.104	46.46
863.32	48.94
863.535	49.65
863.751	44
863.966	47.45
864.182	48.48
864.397	47.54
864.613	45.5
864.828	42.99
865.044	44.96
865.259	47
865.474	46.08
865.69	48.55
865.905	49.53
866.12	47.62
866.336	49.22
866.551	50.59
866.766	48.7
866.981	47.04
867.196	48.15
867.412	48.86
867.627	48.3
867.842	45.87
868.057	45.43
868.272	45.52
868.487	44.49
868.702	42.82
868.917	39.73
869.132	41.49
869.347	42.53
869.562	41.38
869.777	41.64
869.992	38.91
870.207	37.96
870.422	38.11
870.636	34.98
870.851	34.7
871.066	31.55
871.281	31.13
871.495	30.22
871.71	33.14
871.925	29.82
872.14	30.04
872.354	27.39
872.569	26.86
872.783	28.4
872.998	27.14
873.213	26.9
873.427	31.36
873.642	32.12
873.856	31.67
874.071	30.52
874.285	30.34
874.5	29.82
874.714	28.27
874.928	26.75
875.143	26.63
875.357	26.39
875.571	25.9
875.786	25.16
876	27.69
876.214	30.2
876.429	28.89
876.643	30.65
876.857	32.09
877.071	32.46
877.285	32.08
877.499	28.86
877.714	32.17
877.928	34.26
878.142	32.77
878.356	30.19
878.57	32.23
878.784	32.39
878.998	31.78
879.212	35.04
879.426	32.72
879.639	33.31
879.853	32.12
880.067	31.7
880.281	31.21
880.495	33.13
880.709	37.22
880.922	38.58
881.136	41.05
881.35	43.09
881.564	42.33
881.777	39.81
881.991	40.81
882.205	45.02
882.418	46.24
882.632	42.5
882.845	40.84
883.059	40.92
883.273	40.61
883.486	40.35
883.7	43.98
883.913	43.19
884.126	44.42
884.34	41.76
884.553	40.45
884.767	44.62
884.98	44.31
885.193	43
885.407	42.11
885.62	42.68
885.833	41.57
886.046	43.75
886.26	42.36
886.473	40.92
886.686	39.24
886.899	40.77
887.112	39.13
887.326	35.25
887.539	35.84
887.752	36.26
887.965	33.5
888.178	35.3
888.391	36.68
888.604	37.22
888.817	34.88
889.03	34.71
889.243	33.8
889.455	31.04
889.668	31.63
889.881	34.56
890.094	33.29
890.307	29.5
890.52	32.91
890.732	33.71
890.945	33.23
891.158	32.45
891.37	29.07
891.583	29.36
891.796	30.08
892.008	28.85
892.221	27.88
892.434	23.89
892.646	22
892.859	23.1
893.071	27.1
893.284	28.01
893.496	26.1
893.709	25.55
893.921	27.64
894.133	26.97
894.346	27.32
894.558	28.4
894.771	27.93
894.983	30.13
895.195	29.08
895.407	29.23
895.62	26.58
895.832	27.34
896.044	30.54
896.256	28.87
896.468	25.68
896.681	26.33
896.893	27.94
897.105	26.93
897.317	27.22
897.529	28.92
897.741	28.68
897.953	31.33
898.165	30.12
898.377	30.46
898.589	32.05
898.801	31.56
899.013	35.07
899.224	37.63
899.436	38.63
899.648	36.34
899.86	34.56
900.072	37.94
900.283	39.63
900.495	39.93
900.707	39.35
900.919	34.53
901.13	34.29
901.342	32.22
901.554	30.77
901.765	32.91
901.977	30.59
902.188	30.17
902.4	29.52
902.611	27.37
902.823	26.11
903.034	24.68
903.246	23.09
903.457	23.17
903.669	21.33
903.88	19.54
904.091	19.73
904.303	21.3
904.514	19.78
904.725	20.93
904.936	20.67
905.148	21.07
905.359	24.98
905.57	23.97
905.781	22.89
905.992	21.43
906.204	21.57
906.415	23.02
906.626	20.92
906.837	23.13
907.048	22.19
907.259	22.13
907.47	21.89
907.681	22.1
907.892	25.83
908.103	24.88
908.314	20.94
908.525	22.72
908.735	23.68
908.946	23.07
909.157	22.12
909.368	24.21
909.579	25.25
909.789	24.69
910	22.85
910.211	24.43
910.421	25.55
910.632	26.77
910.843	24.12
911.053	27.72
911.264	30.62
911.475	29.2
911.685	29.83
911.896	28.11
912.106	28.97
912.317	26.96
912.527	29.53
912.737	28.13
912.948	26.69
913.158	26.44
913.369	22.71
913.579	25
913.789	25.02
914	29.39
914.21	29.31
914.42	28.33
914.63	27.87
914.841	29.54
915.051	32.04
915.261	32.46
915.471	35.35
915.681	37.55
915.891	37.82
916.101	36.99
916.311	36.64
916.521	36.92
916.731	38.02
916.941	40.52
917.151	39.3
917.361	43.39
917.571	39.36
917.781	36.88
917.991	34.73
918.201	33.9
918.411	31.02
918.621	30.53
918.83	32.02
919.04	29.97
919.25	33.46
919.46	36.68
919.669	34.29
919.879	34.42
920.089	32.12
920.298	30.39
920.508	31.1
920.717	32.68
920.927	29.95
921.136	31.17
921.346	29.22
921.555	25.75
921.765	25.28
921.974	22.82
922.184	19.22
922.393	19.33
922.603	18.74
922.812	22.69
923.021	22.2
923.23	20.2
923.44	17.1
923.649	17.17
923.858	15.24
924.067	15.23
924.277	12.75
924.486	16.85
924.695	15.91
924.904	19.28
925.113	17.59
925.322	19.91
925.531	19.75
925.74	17.25
925.949	16.08
926.158	18.54
926.367	18.22
926.576	19.25
926.785	18.84
926.994	16.72
927.203	16.82
927.412	17.32
927.621	16
927.83	19.38
928.038	19.39
928.247	19.67
928.456	20.02
928.665	21.18
928.873	22.71
929.082	24.41
929.291	23.65
929.499	25.35
929.708	23.77
929.916	24.86
930.125	22.54
930.333	21.01
930.542	23.62
930.75	27.37
930.959	27.47
931.167	26.87
931.376	24.75
931.584	26.57
931.793	24.79
932.001	24.62
932.209	22.25
932.418	19.14
932.626	17.54
932.834	16.2
933.042	13.17
933.251	13.01
933.459	11.78
933.667	11.56
933.875	12.85
934.083	16.33
934.291	15.94
934.499	17.4
934.707	15.81
934.915	15.51
935.123	19.58
935.331	17.85
935.539	15.57
935.747	13.19
935.955	11.3
936.163	10.87
936.371	10.61
936.579	13.38
936.787	13.94
936.995	11.67
937.202	8.18
937.41	7.46
937.618	8.35
937.826	9.18
938.033	5.39
938.241	3.78
938.449	7.54
938.656	10.42
938.864	10.37
939.071	11.63
939.279	13.22
939.486	15.91
939.694	16.23
939.901	16.06
940.109	14.71
940.316	14.36
940.524	12.64
940.731	12.75
940.939	12.5
941.146	12.95
941.353	12.14
941.561	10.69
941.768	10.07
941.975	12.31
942.182	12.5
942.39	13.53
942.597	18.28
942.804	18.05
943.011	16.84
943.218	18.56
943.425	18.5
943.632	20.33
943.839	19.36
944.046	19.04
944.253	20.47
944.46	21.25
944.667	24.51
944.874	21.74
945.081	22.55
945.288	23.86
945.495	24.94
945.702	25.98
945.909	23.21
946.115	24.54
946.322	22.49
946.529	21.5
946.736	22.09
946.942	22.05
947.149	20.63
947.356	19.26
947.562	18.36
947.769	19.56
947.976	18.81
948.182	20.05
948.389	18.1
948.595	19.51
948.802	20.37
949.008	17.97
949.215	19.41
949.421	18.45
949.628	15.49
949.834	15.18
950.04	12.57
950.247	16.29
950.453	16.84
950.659	14.14
950.865	16.3
951.072	10.82
951.278	13.06
951.484	11.08
951.69	8.33
951.896	7.79
952.103	5.74
952.309	7.95
952.515	7.66
952.721	11.05
952.927	12.85
953.133	10.66
953.339	10.71
953.545	9.68
953.751	11.47
953.957	13.37
954.163	11.45
954.369	10.91
954.574	9.31
954.78	8.84
954.986	9.54
955.192	10.68
955.398	9.72
955.603	6.54
955.809	8.1
956.015	9.5
956.22	10.35
956.426	13.57
956.632	9.63
956.837	9.98
957.043	10
957.248	11.53
957.454	12.91
957.66	10.09
957.865	10.54
958.07	11.75
958.276	9.97
958.481	9.18
958.687	8.06
958.892	7.84
959.097	7.48
959.303	7.64
959.508	7.78
959.713	5.42
959.919	5.69
960.124	5.1
960.329	6.58
960.534	10.12
960.739	11.06
960.945	12.04
961.15	11.5
961.355	8.35
961.56	3.62
961.765	2.36
961.97	4.11
962.175	5.99
962.38	3.18
962.585	2.95
962.79	1.3
962.995	1.41
963.2	-0.5
963.404	-0.26
963.609	-4.18
963.814	-5.21
964.019	-7.97
964.224	-9.81
964.428	-8.92
964.633	-8.31
964.838	-7.36
965.042	-8.25
965.247	-10
965.452	-9.69
965.656	-8.4
965.861	-8.04
966.066	-7.66
966.27	-5.52
966.475	-1.83
966.679	-7.23
966.884	-8.13
967.088	-10.56
967.292	-11.16
967.497	-10.03
967.701	-9.88
967.906	-7.42
968.11	-4.02
968.314	-1.01
968.518	-4.11
968.723	-1.31
968.927	-0.36
969.131	1.05
969.335	4.39
969.539	4.39
969.744	6.13
969.948	8.72
970.152	10.39
970.356	12.82
970.56	12.79
970.764	12.8
970.968	15.3
971.172	15.67
971.376	16.93
971.58	18.21
971.784	17.51
971.988	14.8
972.192	16.59
972.395	17.04
972.599	15.54
972.803	12.96
973.007	16.44
973.21	16.77
973.414	16.6
973.618	16.88
973.822	16.94
974.025	17.12
974.229	16.64
974.432	12.21
974.636	9.12
974.84	12.13
975.043	11.75
975.247	10.68
975.45	7.38
975.654	6.18
975.857	7.85
976.06	8.05
976.264	5.37
976.467	6.01
976.671	6.27
976.874	8.05
977.077	6.08
977.28	4.81
977.484	2.8
977.687	1.87
977.89	3.5
978.093	2.96
978.297	3.78
978.5	1.42
978.703	1
978.906	0.79
979.109	-0.33
979.312	0.37
979.515	-0.16
979.718	-0.69
979.921	0.19
980.124	0.68
980.327	1.05
980.53	1.36
980.733	4.23
980.936	6.97
981.138	2.33
981.341	2.14
981.544	1.73
981.747	2.26
981.949	1.11
982.152	2.33
982.355	-0.45
982.558	3.54
982.76	2.14
982.963	1.52
983.165	1.47
983.368	2.15
983.571	1.6
983.773	6.09
983.976	6.81
984.178	7.36
984.381	8.03
984.583	6.53
984.785	7.65
984.988	10.58
985.19	12.68
985.392	10.57
985.595	7.75
985.797	7.99
985.999	10.51
986.202	10.68
986.404	8.73
986.606	12.51
986.808	11.85
987.01	13.53
987.212	11.11
987.415	11.92
987.617	13.47
987.819	13.84
988.021	14.88
988.223	13.06
988.425	11.76
988.627	12.9
988.829	8.42
989.031	10.8
989.232	9.68
989.434	9.94
989.636	10.52
989.838	10.47
990.04	9.95
990.242	8.65
990.443	6.85
990.645	7.21
990.847	9.8
991.048	10.76
991.25	8.96
991.452	7.53
991.653	7.78
991.855	7.49
992.057	6.18
992.258	6.8
992.46	7.47
992.661	8.45
992.863	6.03
993.064	6.62
993.265	5.2
993.467	4.1
993.668	5.7
993.87	4.88
994.071	3.95
994.272	4.47
994.473	7.11
994.675	7.01
994.876	7.23
995.077	9.58
995.278	9.39
995.48	8.74
995.681	7.41
995.882	9.21
996.083	7.77
996.284	4.33
996.485	4.48
996.686	3.57
996.887	4.07
997.088	-0.16
997.289	-3.47
997.49	-4.22
997.691	-4.15
997.892	-3.9
998.092	0.02
998.293	0.69
998.494	-0.11
998.695	-3.19
998.896	-1.31
999.096	-2.08
999.297	-1.64
999.498	-2.85
999.698	-5
999.899	-7.37
1000.1	-9.81
1000.3	-10.24
1000.501	-11.34
1000.701	-13.03
1000.902	-12.76
1001.102	-12.64
1001.303	-12.87
1001.503	-15.57
1001.704	-12.85
1001.904	-14.47
1002.105	-14.59
1002.305	-12.83
1002.505	-14.33
1002.706	-14.19
1002.906	-15.01
1003.106	-16.08
1003.306	-14.73
1003.507	-10.84
1003.707	-10.41
1003.907	-8.69
1004.107	-8.01
1004.307	-10.42
1004.507	-8.91
1004.707	-8.94
1004.907	-8.87
1005.107	-10.94
1005.308	-11.13
1005.507	-13.75
1005.707	-11.58
1005.907	-10.63
1006.107	-8.31
1006.307	-5.81
1006.507	-5.61
1006.707	-4.51
1006.907	-3.63
1007.106	-4.74
1007.306	-4.87
1007.506	-5.13
1007.706	-4.17
1007.905	-7.49
1008.105	-5.65
1008.305	-7.61
1008.504	-7.35
1008.704	-2.63
1008.903	-2.88
1009.103	-1.7
1009.303	-3.08
1009.502	-1.85
1009.702	-4.15
1009.901	-5.05
1010.1	-7.88
1010.3	-5.1
1010.499	-4.96
1010.699	-7.28
1010.898	-7.24
1011.097	-6.5
1011.296	-6.2
1011.496	-5.43
1011.695	-4.18
1011.894	-7.37
1012.093	-4.4
1012.293	-3.89
1012.492	-5.66
1012.691	-6.25
1012.89	-6.16
1013.089	-8.11
1013.288	-6.31
1013.487	-6.04
1013.686	-5.08
1013.885	-6.79
1014.084	-4.7
1014.283	-4.49
1014.482	-5.27
1014.681	-6.71
1014.88	-9.98
1015.078	-7.89
1015.277	-9.66
1015.476	-11.56
1015.675	-12
1015.873	-11.02
1016.072	-12.32
1016.271	-9.68
1016.47	-13.82
1016.668	-13.27
1016.867	-13.44
1017.065	-16.06
1017.264	-17.33
1017.463	-16.98
1017.661	-18.13
1017.86	-17.79
1018.058	-15.52
1018.256	-16.38
1018.455	-18.74
1018.653	-17.06
1018.852	-16.15
1019.05	-18.16
1019.248	-18.4
1019.447	-19.54
1019.645	-20.37
1019.843	-22.65
1020.041	-20.81
1020.24	-21.91
1020.438	-17.58
1020.636	-16.26
1020.834	-18.32
1021.032	-15.57
1021.23	-17.46
1021.428	-14.4
1021.626	-9.31
1021.824	-8.65
1022.022	-9.98
1022.22	-5.83
1022.418	-4.01
1022.616	-5.15
1022.814	-5.69
1023.012	-6.7
1023.21	-4.17
1023.408	-3.84
1023.606	-4.14
1023.803	0.98
1024.001	0.59
1024.199	-3.16
1024.397	-2.43
1024.594	-0.64
1024.792	-2.13
1024.99	-0.36
1025.187	0.5
1025.385	3.63
1025.582	2.83
1025.78	2.46
1025.977	3.2
1026.175	3.96
1026.372	4.34
1026.57	-0.11
1026.767	1.31
1026.965	2.26
1027.162	2.49
1027.359	2.18
1027.557	1.37
1027.754	-1.72
1027.951	-2.88
1028.148	-1.24
1028.346	-4.34
1028.543	-8.32
1028.74	-8.16
1028.937	-9.26
1029.134	-8.48
1029.331	-9.04
1029.528	-8.23
1029.725	-9.72
1029.923	-13.53
1030.12	-9.36
1030.317	-6.07
1030.513	-6.27
1030.71	-6.19
1030.907	-3.54
1031.104	-4.89
1031.301	-7.06
1031.498	-6.33
1031.695	-6.03
1031.892	-4.71
1032.088	-4.93
1032.285	-6.5
1032.482	-7.52
1032.678	-9.85
1032.875	-13.14
1033.072	-11.48
1033.268	-12.41
1033.465	-11.57
1033.662	-13.58
1033.858	-13.68
1034.055	-13.45
1034.251	-10.47
1034.448	-10.87
1034.644	-10.38
1034.84	-6.5
1035.037	-4.35
1035.233	-5.03
1035.43	-4.62
1035.626	-5.01
1035.822	-3.97
1036.019	-4.12
1036.215	-8.62
1036.411	-9.89
1036.607	-11.79
1036.803	-13.96
1037	-15.19
1037.196	-16.89
1037.392	-16.82
1037.588	-19.71
1037.784	-19.62
1037.98	-21.49
1038.176	-20.84
1038.372	-22.5
1038.568	-20.81
1038.764	-17.99
1038.96	-15.29
1039.156	-17.69
1039.352	-18
1039.547	-17.21
1039.743	-16.25
1039.939	-14.29
1040.135	-15.41
1040.331	-18.45
1040.526	-16.24
1040.722	-17.49
1040.918	-20.3
1041.113	-23.25
1041.309	-23.11
1041.505	-24.72
1041.7	-23.95
1041.896	-23.14
1042.091	-23.58
1042.287	-22.51
1042.482	-22.17
1042.678	-21.61
1042.873	-20.62
1043.069	-21.92
1043.264	-20.88
1043.459	-18.98
1043.655	-18.48
1043.85	-18.64
1044.045	-17.24
1044.24	-17.58
1044.436	-14.01
1044.631	-15
1044.826	-16.45
1045.021	-18.32
1045.216	-15.86
