Data from led_4000k_2_FLMT021711__10__17-33-31-859.txt Node

Date: Tue Nov 05 17:33:31 CET 2024
User: Etudiants TP
Spectrometer: FLMT02171
Trigger mode: 0
Integration Time (sec): 1.000000E-1
Scans to average: 5
Electric dark correction enabled: true
Nonlinearity correction enabled: true
Boxcar width: 15
XAxis mode: Wavelengths
Number of Pixels in Spectrum: 3648
>>>>>Begin Spectral Data<<<<<
194.658	-64.08
194.923	-62.07
195.188	-53.87
195.453	-52.04
195.717	-45.29
195.982	-43.09
196.247	-40.7
196.512	-43.74
196.777	-42.09
197.042	-40.97
197.307	-40.69
197.572	-38
197.837	-38.05
198.101	-34.35
198.366	-31.41
198.631	-28.98
198.896	-22.4
199.161	-15.75
199.425	-8.41
199.69	1.26
199.955	0.54
200.22	-2.71
200.484	-3.99
200.749	-6.01
201.014	-3.44
201.278	-3.78
201.543	-2.18
201.807	-2.79
202.072	-1.07
202.337	-0.68
202.601	-1.45
202.866	-3.29
203.13	-2.41
203.395	-5.41
203.659	-5.77
203.924	-9.25
204.189	-9.36
204.453	-9.33
204.717	-6.1
204.982	-3.84
205.246	-1.46
205.511	-0.01
205.775	-0.09
206.04	5.58
206.304	4.51
206.568	6.06
206.833	5.73
207.097	7.1
207.361	9.38
207.626	13.07
207.89	13.86
208.154	14.3
208.419	17.07
208.683	18.02
208.947	21.01
209.211	21.14
209.476	21.35
209.74	22.2
210.004	23.57
210.268	23.2
210.532	25.91
210.796	27.27
211.061	27.57
211.325	28.74
211.589	27.39
211.853	29.3
212.117	31.08
212.381	31.18
212.645	31.82
212.909	32.04
213.173	28.81
213.437	29.48
213.701	30.1
213.965	30.87
214.229	26.23
214.493	26
214.757	23.9
215.021	22.76
215.285	26.4
215.549	29.21
215.813	26.65
216.077	26.88
216.34	29.41
216.604	27.85
216.868	28.15
217.132	29.25
217.396	28.15
217.659	28.37
217.923	25.4
218.187	25.29
218.451	24.89
218.714	22.2
218.978	22.13
219.242	25.24
219.505	25.91
219.769	26.6
220.033	25.94
220.296	25.56
220.56	26.25
220.824	24.48
221.087	23.5
221.351	24
221.614	21.89
221.878	22.93
222.142	20.98
222.405	21.61
222.669	23.87
222.932	21.91
223.196	20.77
223.459	16.32
223.722	15.79
223.986	14.65
224.249	12.69
224.513	12
224.776	12.23
225.04	12.66
225.303	11.19
225.566	10.1
225.83	11.6
226.093	13.97
226.356	10.68
226.62	9.31
226.883	10.39
227.146	10.6
227.409	9.49
227.673	7.24
227.936	6.54
228.199	6.76
228.462	5.65
228.725	5.81
228.989	5.42
229.252	8.16
229.515	11.95
229.778	10.04
230.041	9.56
230.304	8.42
230.567	8.27
230.83	5.98
231.093	8.1
231.356	7.08
231.619	13.66
231.882	13.27
232.145	16.24
232.408	15.11
232.671	14.69
232.934	14.75
233.197	11.28
233.46	11.85
233.723	14.75
233.986	12.54
234.249	10.39
234.512	13.01
234.775	16.29
235.037	17.04
235.3	17.52
235.563	17.1
235.826	18.59
236.089	21.66
236.351	20.25
236.614	22.45
236.877	22.46
237.14	24.49
237.402	23.18
237.665	17.73
237.928	19.32
238.19	16.92
238.453	20.05
238.716	18.96
238.978	20.42
239.241	19.32
239.503	23.78
239.766	19.05
240.029	16.01
240.291	18.28
240.554	18.74
240.816	18.43
241.079	17.77
241.341	18.05
241.604	16.57
241.866	13.17
242.129	14.61
242.391	17
242.653	16.53
242.916	15.8
243.178	12.99
243.441	13.32
243.703	13.27
243.965	10.54
244.228	11.29
244.49	11.09
244.752	11.5
245.015	12.81
245.277	14.91
245.539	14.53
245.801	15.96
246.064	15.43
246.326	14.66
246.588	15.3
246.85	17.03
247.112	15.85
247.374	16.95
247.637	17.79
247.899	18.52
248.161	19.85
248.423	14.66
248.685	15.51
248.947	14.19
249.209	14.81
249.471	16.62
249.733	16.84
249.995	14.08
250.257	13.86
250.519	11.26
250.781	14.29
251.043	12.63
251.305	15.99
251.567	16.23
251.829	15.35
252.091	16.07
252.353	11.67
252.615	13.05
252.876	12
253.138	9.07
253.4	4.82
253.662	5.04
253.924	7
254.185	7.14
254.447	7.78
254.709	6.86
254.971	8.39
255.232	10.53
255.494	7.67
255.756	4.71
256.017	3.95
256.279	3.88
256.541	4.68
256.802	3.29
257.064	4.48
257.326	3.64
257.587	4.09
257.849	5.06
258.11	9.49
258.372	9.73
258.633	11.5
258.895	10.61
259.156	9.26
259.418	7.55
259.679	3.88
259.941	2.84
260.202	3.83
260.464	6.62
260.725	5.74
260.987	4.14
261.248	4.4
261.509	4.82
261.771	4.64
262.032	6.46
262.293	7.16
262.555	7.58
262.816	5.53
263.077	3.29
263.338	0.5
263.6	2.62
263.861	2.71
264.122	1.35
264.383	4.69
264.645	5.78
264.906	5.94
265.167	6.18
265.428	6.3
265.689	6.35
265.95	4.71
266.211	6.21
266.473	5.45
266.734	3.16
266.995	-0.34
267.256	1.6
267.517	4.04
267.778	9.03
268.039	11.37
268.3	11.11
268.561	8.59
268.822	9.75
269.083	8.35
269.344	7.06
269.604	7.94
269.865	8.64
270.126	3.97
270.387	4.64
270.648	4.27
270.909	4.55
271.17	4.6
271.43	2.29
271.691	-0.42
271.952	-1.03
272.213	1.55
272.473	-2.19
272.734	-0.68
272.995	0.99
273.256	1.48
273.516	4.17
273.777	2.91
274.038	5.75
274.298	2.55
274.559	2.69
274.82	6.76
275.08	10.25
275.341	12.14
275.601	10.98
275.862	7.9
276.122	7.09
276.383	6.8
276.643	8.63
276.904	7.8
277.164	12.34
277.425	12.59
277.685	15.27
277.946	14.71
278.206	15.47
278.467	16.5
278.727	17.83
278.987	16.56
279.248	15.63
279.508	16.36
279.768	19.21
280.029	20.59
280.289	17.85
280.549	17.69
280.81	17.4
281.07	16.21
281.33	17.5
281.59	13.48
281.851	15.34
282.111	13.25
282.371	11.74
282.631	13.06
282.891	12.48
283.151	10.25
283.412	7.78
283.672	8.18
283.932	7.86
284.192	9.09
284.452	8.07
284.712	6.98
284.972	7.12
285.232	3.74
285.492	6.45
285.752	4.34
286.012	10.59
286.272	13.7
286.532	10.67
286.792	9.79
287.052	12.33
287.312	13.22
287.571	13.38
287.831	12.45
288.091	9.67
288.351	9.57
288.611	12.01
288.871	10.82
289.13	10.52
289.39	6.94
289.65	9.04
289.91	6.43
290.17	9.63
290.429	12.22
290.689	10.38
290.949	6.97
291.208	8.08
291.468	10.37
291.728	11.24
291.987	13.78
292.247	11.79
292.506	14.61
292.766	16.22
293.026	14.86
293.285	16.09
293.545	18.14
293.804	17.69
294.064	13.28
294.323	10.41
294.583	11.23
294.842	12.91
295.102	12.91
295.361	13.03
295.621	14.03
295.88	15.52
296.139	15.47
296.399	16.53
296.658	12.31
296.917	13.35
297.177	10.89
297.436	11.29
297.695	10.68
297.955	13.15
298.214	12.11
298.473	13.25
298.732	15.73
298.992	18.65
299.251	18.42
299.51	15.62
299.769	16.16
300.028	16.22
300.287	16.2
300.547	14.69
300.806	12.66
301.065	15.84
301.324	17.66
301.583	13.63
301.842	10.93
302.101	8.86
302.36	9.05
302.619	8.83
302.878	9.19
303.137	7.17
303.396	8.37
303.655	9.12
303.914	7
304.173	7.8
304.432	7.83
304.691	10.35
304.95	7.12
305.208	11.62
305.467	12.44
305.726	11.41
305.985	11.59
306.244	10.98
306.503	11.55
306.761	10.12
307.02	6.01
307.279	7.48
307.537	7.66
307.796	3.37
308.055	1.18
308.314	2.53
308.572	0.86
308.831	2.09
309.09	1.67
309.348	2.13
309.607	2.4
309.865	5.61
310.124	6.17
310.382	9.05
310.641	10.66
310.9	8.48
311.158	9
311.417	7.56
311.675	8.61
311.933	9.77
312.192	11.18
312.45	11.21
312.709	11.5
312.967	11.71
313.226	11.74
313.484	11.73
313.742	10.55
314.001	9.49
314.259	7.56
314.517	7.15
314.776	8.49
315.034	11.89
315.292	8.34
315.55	6.91
315.809	6.52
316.067	6.56
316.325	4.56
316.583	6.67
316.841	5.86
317.1	3.98
317.358	0.69
317.616	0.05
317.874	-0.72
318.132	-1.93
318.39	-3.49
318.648	-4.23
318.906	-4
319.164	-3.42
319.422	-3.93
319.68	-5.97
319.938	-6.04
320.196	-7.07
320.454	-4.97
320.712	-5.21
320.97	-5.03
321.228	-6.62
321.486	-3.38
321.744	-1.48
322.002	0.83
322.26	1.1
322.517	1.57
322.775	-2.22
323.033	-4.24
323.291	-1.45
323.549	0.46
323.806	2.97
324.064	2.64
324.322	4.3
324.58	3.39
324.837	5.02
325.095	2.46
325.353	3.42
325.61	4.8
325.868	3.96
326.126	7.16
326.383	5.86
326.641	4.92
326.898	6.26
327.156	5.44
327.413	5.91
327.671	5.86
327.928	7.31
328.186	9.13
328.443	6.19
328.701	10.48
328.958	12.16
329.216	12.32
329.473	9.57
329.731	10.27
329.988	9.05
330.245	11.49
330.503	12.19
330.76	13.36
331.017	15.73
331.275	13.43
331.532	12.89
331.789	10.94
332.047	11.21
332.304	8.67
332.561	7.64
332.818	7.06
333.076	10.41
333.333	12.83
333.59	12.79
333.847	14.97
334.104	12
334.361	12.49
334.618	12.75
334.876	10.46
335.133	12.58
335.39	10.63
335.647	13.22
335.904	9.83
336.161	7.45
336.418	7.93
336.675	3.65
336.932	3.51
337.189	2.47
337.446	4.03
337.703	3.17
337.96	-0.61
338.216	-2.77
338.473	-5.05
338.73	-3.85
338.987	-3.45
339.244	-0.44
339.501	-1.27
339.757	-0.25
340.014	1.46
340.271	2.46
340.528	5.08
340.785	8.6
341.041	8.18
341.298	4.43
341.555	4.25
341.811	3.07
342.068	1.28
342.325	1.43
342.581	3.49
342.838	5.09
343.094	3.32
343.351	3.69
343.608	-0.78
343.864	0.98
344.121	1.59
344.377	2.02
344.634	1.15
344.89	0.64
345.147	1.2
345.403	-1.02
345.66	-1.71
345.916	0.47
346.172	0.87
346.429	-0.1
346.685	-1.51
346.942	-2.1
347.198	-5.43
347.454	-3.79
347.711	-3.04
347.967	-6.1
348.223	-4.23
348.48	-5.41
348.736	-2.56
348.992	-2.26
349.248	0.42
349.504	-0.08
349.761	1.04
350.017	1.11
350.273	0.57
350.529	-1.22
350.785	-1.09
351.041	-1.66
351.297	1.26
351.554	1.54
351.81	0.79
352.066	0.39
352.322	-1.09
352.578	-1.03
352.834	-1.79
353.09	-2.46
353.346	-1.86
353.602	-3.63
353.858	-4.83
354.114	-5.93
354.369	-5.08
354.625	-3.07
354.881	-3.77
355.137	-2.37
355.393	-2.36
355.649	-2.03
355.905	-1.62
356.16	-2.33
356.416	-2.37
356.672	-8.96
356.928	-7.8
357.183	-8.3
357.439	-7.81
357.695	-10.1
357.951	-5.36
358.206	-5.74
358.462	-5.66
358.718	-7.84
358.973	-6.59
359.229	-6.14
359.484	-5.26
359.74	-3.3
359.996	-3.51
360.251	0.51
360.507	1.68
360.762	1.38
361.018	4.63
361.273	1.92
361.529	3.79
361.784	4.56
362.04	4.94
362.295	4.36
362.55	3.19
362.806	3.81
363.061	4.8
363.316	5.08
363.572	5.12
363.827	7.37
364.082	4.61
364.338	6.39
364.593	6.58
364.848	6.42
365.104	5.96
365.359	7.54
365.614	7.46
365.869	5.22
366.124	5.61
366.38	5.04
366.635	7.43
366.89	8.16
367.145	6.85
367.4	9.49
367.655	9.57
367.91	9.63
368.165	7.81
368.42	4.47
368.675	6.5
368.93	6.6
369.185	5.17
369.44	5.12
369.695	8.37
369.95	7.61
370.205	7.01
370.46	6.75
370.715	6.91
370.97	8.48
371.225	8.26
371.48	8.7
371.734	7.9
371.989	10.76
372.244	10.22
372.499	12.33
372.754	10.49
373.008	7.17
373.263	3.5
373.518	6.76
373.773	4.92
374.027	4.02
374.282	6.62
374.537	6.58
374.791	7.56
375.046	5.6
375.301	4.76
375.555	2.95
375.81	4.7
376.064	5.97
376.319	9.13
376.573	7.56
376.828	3.32
377.082	8.27
377.337	6.94
377.591	3.75
377.846	4.83
378.1	7.97
378.355	7.28
378.609	6.17
378.863	0.91
379.118	2.26
379.372	1.66
379.627	0.09
379.881	-2.05
380.135	-2.45
380.389	-3.86
380.644	-2.38
380.898	-0.48
381.152	0.42
381.407	0.28
381.661	3.18
381.915	5.3
382.169	4.53
382.423	3.49
382.677	1.25
382.932	2.93
383.186	3.37
383.44	3.91
383.694	6.4
383.948	4.53
384.202	4.12
384.456	5.75
384.71	7.91
384.964	5.56
385.218	7.49
385.472	6.98
385.726	7.79
385.98	6.65
386.234	8.66
386.488	5.65
386.742	8.24
386.996	5.14
387.249	5.47
387.503	7.38
387.757	7.86
388.011	7.82
388.265	8.75
388.518	8.77
388.772	9.79
389.026	11.89
389.28	9.07
389.533	7.31
389.787	9.58
390.041	7.22
390.295	6.91
390.548	5.63
390.802	8.61
391.055	8.07
391.309	7.53
391.563	4.68
391.816	5.34
392.07	3.76
392.323	4.85
392.577	5.51
392.83	8.34
393.084	13.51
393.337	17.78
393.591	17.41
393.844	17.44
394.098	21.22
394.351	26.14
394.604	28.2
394.858	31.14
395.111	31.51
395.364	29.1
395.618	30.83
395.871	28.93
396.124	26.83
396.378	26.88
396.631	27.71
396.884	24.49
397.137	24.29
397.391	26.35
397.644	22.14
397.897	22.98
398.15	24.14
398.403	27.48
398.657	25.94
398.91	24.62
399.163	26.93
399.416	26.32
399.669	24.38
399.922	24.76
400.175	21.88
400.428	20.46
400.681	20.77
400.934	16.19
401.187	14.53
401.44	15.14
401.693	13.86
401.946	9.19
402.199	4.36
402.452	3
402.704	-1.15
402.957	-2.24
403.21	0.71
403.463	1.08
403.716	2.84
403.969	4.82
404.221	3.47
404.474	5.3
404.727	9.79
404.98	12.81
405.232	12.02
405.485	14.84
405.738	16.89
405.99	17.55
406.243	18.1
406.496	19.87
406.748	20.16
407.001	17.36
407.253	18.16
407.506	18.32
407.759	18.69
408.011	18.06
408.264	18.95
408.516	17.18
408.769	15.69
409.021	16.07
409.274	16.25
409.526	18.8
409.778	18.17
410.031	21.48
410.283	22.56
410.536	28.28
410.788	26.89
411.04	25.2
411.293	25.23
411.545	25.31
411.797	24.66
412.049	24.78
412.302	25.05
412.554	24.52
412.806	22.9
413.058	22.06
413.311	21.57
413.563	19.61
413.815	18.67
414.067	15.51
414.319	14.03
414.571	14.84
414.823	13.67
415.075	12.09
415.328	13.35
415.58	17.44
415.832	18.61
416.084	19.83
416.336	19.97
416.588	24.6
416.84	23.04
417.091	25.27
417.343	21.32
417.595	22.82
417.847	22.81
418.099	22.51
418.351	21.03
418.603	25.2
418.855	26.96
419.106	28.46
419.358	28.42
419.61	28.31
419.862	29.47
420.114	26.01
420.365	26.08
420.617	26.12
420.869	25.27
421.12	25.05
421.372	26.65
421.624	25.93
421.875	28.11
422.127	25.08
422.379	24.96
422.63	28.33
422.882	28.52
423.133	28.58
423.385	26.31
423.636	27.75
423.888	28.63
424.139	30.38
424.391	26.99
424.642	25.97
424.894	23.85
425.145	25.04
425.396	23.49
425.648	27.04
425.899	25.25
426.151	25.89
426.402	24.11
426.653	24.16
426.905	21.19
427.156	19.05
427.407	18.92
427.658	18.25
427.91	17.03
428.161	14.66
428.412	15.78
428.663	16.37
428.914	16.54
429.166	17.62
429.417	18.39
429.668	16.24
429.919	13.86
430.17	12.91
430.421	11.79
430.672	15.13
430.923	15.04
431.174	13.72
431.425	14.14
431.676	13.29
431.927	10.23
432.178	10.71
432.429	10.34
432.68	9.96
432.931	12.41
433.182	14.85
433.433	11.33
433.683	12.85
433.934	11.71
434.185	10.61
434.436	9.36
434.687	9.85
434.937	12.64
435.188	11.06
435.439	9.01
435.69	11.13
435.94	11.72
436.191	12.84
436.442	12.8
436.692	11.12
436.943	8.77
437.194	7.39
437.444	8.75
437.695	13.77
437.945	15.24
438.196	14.93
438.447	13.73
438.697	14.3
438.948	15.29
439.198	12.26
439.449	8.91
439.699	10.23
439.949	10.37
440.2	10.42
440.45	11.38
440.701	10.89
440.951	10.41
441.201	11.79
441.452	11.16
441.702	10.75
441.952	11.13
442.203	11.73
442.453	10.58
442.703	10.84
442.953	12.25
443.204	14.92
443.454	13.7
443.704	14.43
443.954	10.1
444.204	11.07
444.455	12.85
444.705	13.18
444.955	13.56
445.205	14
445.455	10.76
445.705	9.73
445.955	9.93
446.205	10.38
446.455	11.23
446.705	11.19
446.955	12.96
447.205	14.82
447.455	17.16
447.705	16.21
447.955	15.37
448.205	16.48
448.454	15.1
448.704	15.59
448.954	14.08
449.204	15.13
449.454	15.28
449.704	14.13
449.953	14.25
450.203	18.12
450.453	16.14
450.703	18.08
450.952	16.53
451.202	18.64
451.452	18.67
451.701	22.01
451.951	25.52
452.201	25.27
452.45	25.48
452.7	29.36
452.949	28.82
453.199	29.9
453.448	33.13
453.698	34.91
453.947	33.22
454.197	32.3
454.446	30.77
454.696	33.74
454.945	33.65
455.195	31.41
455.444	31.6
455.693	36.17
455.943	34.37
456.192	35.57
456.442	35.75
456.691	36.43
456.94	35.57
457.189	35.37
457.439	38.78
457.688	40.4
457.937	38.88
458.186	40.09
458.436	39.06
458.685	40.71
458.934	38.88
459.183	37.98
459.432	40.7
459.681	40.1
459.93	38.47
460.179	39.03
460.429	36.64
460.678	39.53
460.927	42.53
461.176	41.22
461.425	40.36
461.674	42.53
461.923	41.1
462.172	41.61
462.42	39.23
462.669	41.12
462.918	39.52
463.167	40.25
463.416	37.36
463.665	38.57
463.914	38.03
464.162	36.66
464.411	37.38
464.66	38.6
464.909	36.93
465.158	36.44
465.406	36.9
465.655	39.21
465.904	39.75
466.152	40.64
466.401	41.06
466.65	43
466.898	41.22
467.147	37.33
467.395	36.39
467.644	40.46
467.893	39.45
468.141	36.95
468.39	33.92
468.638	32.78
468.887	31.96
469.135	32.13
469.384	32.04
469.632	33.96
469.88	33.3
470.129	36.42
470.377	33.23
470.626	36.77
470.874	38.06
471.122	39.36
471.371	37.89
471.619	37.5
471.867	41.04
472.115	41.21
472.364	38.79
472.612	42.1
472.86	40.78
473.108	41.01
473.356	39.96
473.605	38.99
473.853	37.62
474.101	36.51
474.349	34.58
474.597	39.31
474.845	38.47
475.093	37.79
475.341	34.71
475.589	33.99
475.837	36.19
476.085	37.96
476.333	35.21
476.581	35.99
476.829	34.94
477.077	37.44
477.325	37.72
477.573	41.23
477.821	37.64
478.069	38.95
478.317	37.97
478.564	39.67
478.812	38.06
479.06	36.95
479.308	35.45
479.555	35.25
479.803	33.74
480.051	36.22
480.299	35.08
480.546	35.82
480.794	33.15
481.042	33.67
481.289	34.98
481.537	35.26
481.784	35.06
482.032	37.9
482.28	36.47
482.527	36.95
482.775	36.42
483.022	38.4
483.27	40.61
483.517	44.33
483.765	43.65
484.012	44.09
484.259	42.25
484.507	45.18
484.754	44.68
485.002	43.08
485.249	40.57
485.496	43.43
485.744	43.66
485.991	43.97
486.238	43.07
486.486	46.03
486.733	46
486.98	49.95
487.227	47.44
487.474	49
487.722	52.44
487.969	50.8
488.216	50.49
488.463	50.46
488.71	48.51
488.957	47.14
489.204	46.68
489.451	47.34
489.699	45.96
489.946	42.93
490.193	42.09
490.44	41.52
490.687	42.05
490.934	41.08
491.18	37.61
491.427	39.79
491.674	42.69
491.921	42.94
492.168	40.93
492.415	38.85
492.662	40.83
492.909	42.7
493.155	42.6
493.402	42.26
493.649	41.19
493.896	41.97
494.142	38.01
494.389	39.67
494.636	38.04
494.883	37.37
495.129	36.92
495.376	34.91
495.623	37.13
495.869	39.02
496.116	41.43
496.362	43.61
496.609	47.07
496.855	52.62
497.102	52.4
497.348	53.21
497.595	57.07
497.841	63.08
498.088	63.87
498.334	63.69
498.581	62.01
498.827	62.43
499.074	62.86
499.32	65.2
499.566	69.44
499.813	70.51
500.059	69.62
500.305	70.35
500.552	71.33
500.798	70.53
501.044	74.54
501.29	73.6
501.537	71.19
501.783	76.06
502.029	79.38
502.275	77.11
502.521	75.59
502.767	77.08
503.013	80.22
503.26	78.33
503.506	75.56
503.752	76.84
503.998	75.63
504.244	76.48
504.49	73.34
504.736	76.47
504.982	76.44
505.228	77.99
505.474	77.34
505.72	77.96
505.966	77.06
506.211	81.31
506.457	81.88
506.703	80.17
506.949	78.26
507.195	77.28
507.441	74.55
507.686	77.97
507.932	78.95
508.178	79.81
508.424	78.4
508.669	76.48
508.915	78.79
509.161	80.99
509.406	82.35
509.652	82.65
509.898	87.66
510.143	89.93
510.389	90.15
510.634	87.17
510.88	92.63
511.125	96.58
511.371	98.33
511.616	99.58
511.862	96.81
512.107	96.88
512.353	98.48
512.598	99.32
512.844	97.79
513.089	96.46
513.335	98.68
513.58	99.28
513.825	99.3
514.071	100.26
514.316	100.22
514.561	102.35
514.806	101.93
515.052	105.72
515.297	105.11
515.542	106.98
515.787	108.77
516.033	111.71
516.278	112.89
516.523	113.79
516.768	113.41
517.013	111.28
517.258	110.19
517.503	109.91
517.748	111.42
517.993	110.98
518.238	110.78
518.483	109.11
518.728	108.69
518.973	106.2
519.218	107.53
519.463	110.89
519.708	110.01
519.953	109.5
520.198	111.83
520.443	115.57
520.688	119.66
520.933	118.73
521.177	120.48
521.422	120.51
521.667	123.77
521.912	125.43
522.157	122.11
522.401	125.62
522.646	126.4
522.891	127.22
523.135	128.94
523.38	129.09
523.625	128.35
523.869	132.06
524.114	132.92
524.358	135.39
524.603	135.26
524.848	134.24
525.092	135
525.337	136.84
525.581	139.68
525.826	143.06
526.07	145.08
526.315	146.02
526.559	145.34
526.803	144.57
527.048	147.14
527.292	149.34
527.537	148.18
527.781	147.97
528.025	145.57
528.269	146.24
528.514	148.33
528.758	146.46
529.002	146.33
529.247	149.66
529.491	148.56
529.735	154.62
529.979	154.2
530.223	156.37
530.467	154.28
530.712	152.2
530.956	151.17
531.2	151.77
531.444	148.42
531.688	150.4
531.932	150.16
532.176	152.11
532.42	155.08
532.664	156.64
532.908	155.42
533.152	153.8
533.396	153.15
533.64	151.56
533.884	150.09
534.128	151.61
534.371	152.53
534.615	153.35
534.859	152.73
535.103	153.3
535.347	152.31
535.59	152.84
535.834	149.6
536.078	150.92
536.322	153.14
536.565	157.3
536.809	153.79
537.053	157.37
537.296	153.66
537.54	153.28
537.784	151.24
538.027	152.49
538.271	150.86
538.514	149.21
538.758	150.54
539.001	149.5
539.245	148.49
539.488	146.43
539.732	147.09
539.975	146.38
540.219	147.31
540.462	146.62
540.706	147.65
540.949	147.27
541.192	146.52
541.436	151.79
541.679	155.23
541.922	156.57
542.166	152.34
542.409	152.34
542.652	153.02
542.895	154.89
543.139	157.11
543.382	162.02
543.625	161.39
543.868	161.43
544.111	158.11
544.354	157.24
544.598	153.87
544.841	156.24
545.084	156.25
545.327	155.73
545.57	156.85
545.813	159.29
546.056	159
546.299	158.98
546.542	161.16
546.785	163.74
547.028	165.93
547.271	164.94
547.514	163.7
547.756	160.83
547.999	162.04
548.242	162.61
548.485	158.54
548.728	159.74
548.971	154.41
549.213	154.47
549.456	151.9
549.699	151.54
549.942	150.98
550.184	149.68
550.427	148.27
550.67	146.85
550.912	139.73
551.155	139.64
551.398	137.65
551.64	137.22
551.883	136.96
552.125	136.5
552.368	134.27
552.61	130.57
552.853	132.8
553.095	130.89
553.338	130.66
553.58	131.76
553.823	129.08
554.065	130.43
554.308	126.18
554.55	123.58
554.792	121.86
555.035	120.31
555.277	118.6
555.519	118.42
555.762	116.53
556.004	118.13
556.246	113.69
556.488	115.31
556.731	111.92
556.973	113.25
557.215	112.67
557.457	114.52
557.699	117.2
557.941	114.5
558.183	112.91
558.426	116.31
558.668	112.87
558.91	114.28
559.152	114.52
559.394	112.84
559.636	115.65
559.878	117.01
560.12	117.39
560.362	116.97
560.604	117.72
560.845	114.46
561.087	113.87
561.329	117.9
561.571	114.48
561.813	114.9
562.055	114.15
562.297	114.28
562.538	115.78
562.78	117.78
563.022	114.63
563.264	116.27
563.505	115.08
563.747	115.89
563.989	113.62
564.23	111.55
564.472	110.22
564.714	112.82
564.955	112.3
565.197	108.95
565.438	110.82
565.68	113.49
565.921	111.3
566.163	112.51
566.404	112.01
566.646	113.04
566.887	115.35
567.129	115.38
567.37	113.72
567.612	113.9
567.853	111.57
568.094	113.28
568.336	115.67
568.577	116.01
568.818	115.74
569.06	114.41
569.301	111.95
569.542	111.03
569.783	112.5
570.025	112.23
570.266	112.37
570.507	115.04
570.748	113.41
570.989	117.04
571.23	119.68
571.472	120.27
571.713	119.62
571.954	120.46
572.195	117.77
572.436	119.08
572.677	120.58
572.918	122.35
573.159	120.03
573.4	117.1
573.641	116.16
573.882	116.01
574.123	113.91
574.364	109.13
574.604	109.18
574.845	106.7
575.086	108.02
575.327	107.85
575.568	106.39
575.809	103.5
576.049	100.47
576.29	96.06
576.531	100.51
576.771	103.68
577.012	106.82
577.253	106.97
577.494	106.16
577.734	105.46
577.975	105.03
578.215	105.65
578.456	101.95
578.697	101.59
578.937	102.17
579.178	101.94
579.418	99.85
579.659	99.5
579.899	95.35
580.14	93.55
580.38	90.94
580.62	90.38
580.861	94.66
581.101	94.42
581.342	93.19
581.582	89.37
581.822	90.77
582.063	88.27
582.303	89.73
582.543	89.08
582.783	90.08
583.024	91.01
583.264	94.92
583.504	94.9
583.744	96.16
583.984	92.62
584.224	93.66
584.465	90.91
584.705	91.58
584.945	91.44
585.185	91.8
585.425	91.23
585.665	89.09
585.905	89.19
586.145	89.35
586.385	86.65
586.625	89.52
586.865	89.41
587.105	89.21
587.345	89.57
587.585	90.26
587.824	89.02
588.064	88.4
588.304	85.71
588.544	84.94
588.784	82.91
589.024	84.39
589.263	83.95
589.503	82.54
589.743	84.21
589.982	82.06
590.222	81.51
590.462	78.81
590.701	74.25
590.941	76.64
591.181	75.61
591.42	74.63
591.66	75.44
591.899	78.86
592.139	76.22
592.378	76.13
592.618	73.55
592.857	73.97
593.097	74.48
593.336	73.43
593.576	71.08
593.815	72.57
594.055	71.41
594.294	70.82
594.533	68.44
594.773	68.21
595.012	67.67
595.251	69.31
595.491	70.88
595.73	72.41
595.969	72.21
596.208	73.52
596.447	78.7
596.687	79.55
596.926	80.77
597.165	76.89
597.404	79.73
597.643	77.09
597.882	75.25
598.121	76.57
598.36	76.25
598.599	76.55
598.838	76.86
599.077	71.62
599.316	71.12
599.555	70.57
599.794	71.6
600.033	74.47
600.272	74.19
600.511	71.92
600.75	73.47
600.989	75.98
601.228	74.91
601.466	73.21
601.705	74.52
601.944	76.39
602.183	78.21
602.422	78.5
602.66	76.59
602.899	75.15
603.138	74.43
603.376	76.04
603.615	77.2
603.854	75.31
604.092	74.7
604.331	75.03
604.569	76.39
604.808	74.27
605.047	76.14
605.285	76.04
605.524	75.6
605.762	74.15
606	76.88
606.239	77.52
606.477	77.05
606.716	73.61
606.954	72.4
607.193	69.41
607.431	65.45
607.669	63.91
607.908	63.45
608.146	65.1
608.384	62.94
608.622	62.01
608.861	62.83
609.099	61.57
609.337	61.94
609.575	60.29
609.813	60.73
610.052	60.24
610.29	55.95
610.528	54.47
610.766	52.98
611.004	52.95
611.242	50.48
611.48	51.58
611.718	48.51
611.956	48.52
612.194	47.52
612.432	47.12
612.67	46.19
612.908	48.41
613.146	46.86
613.384	44.94
613.621	43.09
613.859	45.52
614.097	45.36
614.335	45.82
614.573	47.7
614.811	48.85
615.048	49.23
615.286	49.19
615.524	47.71
615.761	44.98
615.999	45.96
616.237	45.29
616.474	46.69
616.712	46.18
616.95	44.37
617.187	42.7
617.425	43.87
617.662	46.86
617.9	45.81
618.137	43.22
618.375	40.11
618.612	37.96
618.85	38.75
619.087	41.91
619.325	41.27
619.562	40.41
619.799	38.26
620.037	38.47
620.274	35.15
620.511	35.38
620.749	32.65
620.986	32.04
621.223	29.21
621.461	28.26
621.698	29.4
621.935	28.12
622.172	26.37
622.409	26.94
622.647	26.88
622.884	23.97
623.121	26.48
623.358	25.17
623.595	24.13
623.832	23.86
624.069	21.94
624.306	23.6
624.543	24.27
624.78	25.7
625.017	26.05
625.254	28.8
625.491	30.82
625.728	32.91
625.965	32.91
626.202	30.71
626.438	30.23
626.675	28.96
626.912	31.21
627.149	32.71
627.386	34.59
627.622	33.21
627.859	33.55
628.096	33.33
628.333	33.5
628.569	34.61
628.806	35.07
629.043	34.37
629.279	34.34
629.516	36.27
629.752	33.25
629.989	34.5
630.225	33.57
630.462	33.91
630.699	34.39
630.935	36.21
631.171	33.72
631.408	34.54
631.644	33.83
631.881	32.17
632.117	29.21
632.354	29.47
632.59	27.19
632.826	27.38
633.063	27.77
633.299	30.36
633.535	28.17
633.771	25.88
634.008	28.32
634.244	26.67
634.48	26.15
634.716	25.79
634.953	26.5
635.189	26.77
635.425	29.75
635.661	32.03
635.897	30.72
636.133	31.43
636.369	29.99
636.605	28.28
636.841	27.9
637.077	30.49
637.313	30.89
637.549	31.68
637.785	30.26
638.021	30.42
638.257	26.15
638.493	29.01
638.729	26.35
638.965	28.75
639.2	30.66
639.436	29.48
639.672	27.83
639.908	25.61
640.144	28.83
640.379	29.71
640.615	27.37
640.851	31.53
641.086	32.8
641.322	31.77
641.558	32.25
641.793	32.37
642.029	30.18
642.264	29.3
642.5	29.54
642.736	24.74
642.971	25.26
643.207	23.26
643.442	21.33
643.678	23.34
643.913	23.92
644.148	23.61
644.384	25.73
644.619	25.04
644.855	25.47
645.09	25.9
645.325	25.91
645.561	28.19
645.796	24.84
646.031	28.16
646.266	25.39
646.502	24.3
646.737	27.27
646.972	27.52
647.207	29.17
647.442	26.27
647.678	23.95
647.913	25.47
648.148	24.02
648.383	22.54
648.618	23.08
648.853	23.9
649.088	26.13
649.323	29.3
649.558	30.94
649.793	31.1
650.028	33.07
650.263	29.1
650.498	30.36
650.733	29.44
650.968	27.52
651.202	30.08
651.437	27.39
651.672	23.77
651.907	21.92
652.142	22.76
652.376	23.22
652.611	23.54
652.846	25.52
653.081	25.61
653.315	25.33
653.55	25.45
653.785	24.09
654.019	24.46
654.254	22.46
654.488	22.72
654.723	19.79
654.958	19.06
655.192	18.16
655.427	15.35
655.661	17.14
655.896	18.14
656.13	19.79
656.364	16.7
656.599	13.96
656.833	16.01
657.068	17.74
657.302	16.96
657.536	16.91
657.771	19.87
658.005	22.05
658.239	23.56
658.474	20.05
658.708	21.17
658.942	21.2
659.176	20.95
659.41	18.11
659.645	18.4
659.879	17.54
660.113	13.88
660.347	12.24
660.581	9.07
660.815	8.49
661.049	8.4
661.283	5.53
661.517	5.37
661.751	3.9
661.985	3.62
662.219	3.31
662.453	1.33
662.687	3.47
662.921	0.88
663.155	1.28
663.389	-4.06
663.622	-6.16
663.856	-4.9
664.09	-7.84
664.324	-8.46
664.558	-6.75
664.791	-7.3
665.025	-9.03
665.259	-8.85
665.492	-10.28
665.726	-7.4
665.96	-7
666.193	-8.81
666.427	-6.36
666.661	-6.15
666.894	-8.13
667.128	-8.06
667.361	-4.71
667.595	-3.26
667.828	-2.76
668.062	-2.33
668.295	-2.32
668.529	-2.18
668.762	-1.51
668.995	-2.05
669.229	1.73
669.462	3.79
669.695	5.37
669.929	4.72
670.162	5.13
670.395	3.75
670.629	4.76
670.862	7.9
671.095	5.51
671.328	5.87
671.561	2.11
671.795	3.03
672.028	3.12
672.261	4.71
672.494	4.61
672.727	2.98
672.96	3.82
673.193	3.71
673.426	7.53
673.659	7.15
673.892	8.18
674.125	7.88
674.358	6.97
674.591	4.88
674.824	5.35
675.057	5.27
675.29	3.91
675.523	5.53
675.755	6.24
675.988	6.76
676.221	11.06
676.454	9.12
676.687	10.7
676.919	11.41
677.152	10.44
677.385	9.82
677.617	9.95
677.85	11.27
678.083	10.08
678.315	12.84
678.548	11.78
678.78	12.38
679.013	10.73
679.246	12.06
679.478	12.15
679.711	10.52
679.943	13.13
680.175	9.78
680.408	12.24
680.64	9.6
680.873	9.4
681.105	10.04
681.338	12.96
681.57	12.16
681.802	13.29
682.034	12.59
682.267	15.41
682.499	17.19
682.731	14.18
682.964	14.58
683.196	12.47
683.428	9.26
683.66	7.71
683.892	9.36
684.124	10.84
684.356	14.62
684.589	14.39
684.821	12.56
685.053	12.07
685.285	12.27
685.517	13.04
685.749	13.2
685.981	15.03
686.213	16.91
686.445	17.07
686.676	14.68
686.908	15.19
687.14	13.53
687.372	14.47
687.604	12.44
687.836	12.45
688.068	12.29
688.299	12.01
688.531	10.46
688.763	16.43
688.995	14.4
689.226	17.89
689.458	15.76
689.69	14.56
689.921	13.96
690.153	11.88
690.384	15.77
690.616	15.91
690.848	16.61
691.079	11.89
691.311	8.23
691.542	5.13
691.774	5.05
692.005	8.6
692.237	12.4
692.468	9.76
692.699	8.35
692.931	8.08
693.162	5.66
693.393	3.81
693.625	2.53
693.856	4.01
694.087	6.1
694.319	8.39
694.55	8.79
694.781	7.73
695.012	7.94
695.243	7.09
695.475	6.11
695.706	5.51
695.937	2.51
696.168	1.7
696.399	-0.27
696.63	-0.89
696.861	-1.94
697.092	3.87
697.323	7.81
697.554	7.1
697.785	7.97
698.016	9.35
698.247	8.06
698.478	9.01
698.709	10.07
698.94	10.98
699.171	9.46
699.401	4.62
699.632	8.28
699.863	6.35
700.094	6.79
700.325	10.66
700.555	11.8
700.786	11.8
701.017	11.5
701.247	9.89
701.478	8.59
701.709	8.54
701.939	8
702.17	10.23
702.401	12.42
702.631	13.97
702.862	13.75
703.092	11.33
703.323	14.26
703.553	14.92
703.784	15.43
704.014	16.5
704.244	10.33
704.475	7.65
704.705	6.86
704.936	5.73
705.166	4.56
705.396	7.35
705.627	9.15
705.857	8.78
706.087	10.31
706.317	7.93
706.548	6.67
706.778	3.84
707.008	6
707.238	7.71
707.468	5.88
707.698	3.56
707.928	4.34
708.158	2.82
708.389	2.84
708.619	2.33
708.849	0.16
709.079	1.66
709.309	-1.56
709.539	-4.17
709.768	-4.22
709.998	-2.82
710.228	-1.67
710.458	-3.19
710.688	-6.54
710.918	-5.6
711.148	-6.15
711.378	-4.04
711.607	-3.75
711.837	-2.39
712.067	-2.92
712.297	-1.94
712.526	-2.59
712.756	-1.63
712.986	-3.94
713.215	-6.76
713.445	-5.18
713.674	-3.07
713.904	-2.89
714.134	-1.08
714.363	-2.63
714.593	-4.81
714.822	-4.92
715.052	-5.88
715.281	-3.93
715.511	-4.84
715.74	-5.32
715.969	-5.48
716.199	-5.22
716.428	-3.79
716.657	-3.53
716.887	-1.37
717.116	-4.77
717.345	-2.55
717.575	-1.74
717.804	-0.25
718.033	-2.11
718.262	-3.43
718.492	-3.66
718.721	-2.62
718.95	-4.38
719.179	-5.92
719.408	-6.68
719.637	-9.39
719.866	-12.76
720.095	-11.39
720.324	-11.03
720.553	-14.35
720.782	-16.36
721.011	-15.49
721.24	-18.6
721.469	-19.42
721.698	-19.42
721.927	-19.11
722.156	-19.78
722.385	-21.56
722.613	-18.45
722.842	-16.98
723.071	-12.44
723.3	-13.04
723.529	-14.3
723.757	-13.83
723.986	-18.31
724.215	-17.47
724.443	-17.49
724.672	-15.3
724.901	-13.92
725.129	-12.22
725.358	-7.68
725.586	-9.61
725.815	-11.08
726.043	-11.01
726.272	-11.91
726.5	-11.3
726.729	-10.64
726.957	-12.67
727.186	-12.15
727.414	-10.56
727.642	-7.9
727.871	-6.13
728.099	-6.37
728.327	-6.03
728.556	-3.95
728.784	-1.57
729.012	-2.89
729.241	-0.5
729.469	-0.47
729.697	-4.45
729.925	-4.59
730.153	-8.83
730.381	-7.48
730.61	-7.02
730.838	-9.84
731.066	-6.91
731.294	-6.35
731.522	-9.1
731.75	-13.3
731.978	-14.43
732.206	-13.73
732.434	-16.96
732.662	-14.83
732.89	-16.89
733.118	-17.39
733.346	-16.15
733.573	-16.42
733.801	-15.92
734.029	-8.83
734.257	-9.04
734.485	-5.6
734.712	-4.08
734.94	-5.72
735.168	-2.78
735.396	-3.07
735.623	-4.55
735.851	-4.77
736.078	-3.08
736.306	-3.1
736.534	-4.65
736.761	-1.43
736.989	-4.03
737.216	-3.87
737.444	-6.55
737.671	-4.06
737.899	1.94
738.126	0.36
738.354	0.07
738.581	0.2
738.809	2.1
739.036	-0.38
739.263	-0.37
739.491	-1.43
739.718	-2.07
739.945	3.11
740.173	5.53
740.4	5.24
740.627	4.09
740.854	5.88
741.081	3.58
741.309	2.02
741.536	-3.08
741.763	-5.28
741.99	-3.13
742.217	-2.14
742.444	-2.02
742.671	-1.57
742.898	-2.77
743.125	-3.56
743.352	-5.51
743.579	-4.16
743.806	-6.31
744.033	-2.58
744.26	-0.75
744.487	-1.63
744.714	-4.21
744.941	-5.05
745.167	-2.54
745.394	-2.42
745.621	-1.04
745.848	-1.52
746.075	2.29
746.301	5.03
746.528	8.41
746.755	7.43
746.981	6.7
747.208	7.13
747.435	8.82
747.661	10.52
747.888	10.29
748.114	7.63
748.341	9.89
748.567	12.05
748.794	9.7
749.02	8.82
749.247	5.82
749.473	5.59
749.7	6.38
749.926	6.2
750.152	8.64
750.379	9.81
750.605	9.94
750.831	9.39
751.058	7.17
751.284	6.05
751.51	9.48
751.737	10.69
751.963	8.63
752.189	7.44
752.415	6.32
752.641	4.84
752.867	5.01
753.094	1.82
753.32	-0.43
753.546	-1.07
753.772	0.71
753.998	-0.65
754.224	-1.12
754.45	-1.67
754.676	-3.71
754.902	-4.42
755.128	-4.69
755.354	-5.79
755.579	-6.27
755.805	-3.29
756.031	-4.32
756.257	-5.27
756.483	-6.78
756.709	-8.99
756.934	-8.06
757.16	-10.31
757.386	-10.73
757.612	-12.3
757.837	-13.39
758.063	-10.81
758.289	-7.88
758.514	-10.94
758.74	-13.92
758.965	-16.24
759.191	-14.24
759.416	-12.93
759.642	-10.31
759.868	-10.8
760.093	-8.2
760.318	-8.72
760.544	-10.1
760.769	-10.14
760.995	-11.11
761.22	-12.29
761.445	-10.36
761.671	-8.35
761.896	-6.09
762.121	-4.84
762.347	-5.48
762.572	-7.34
762.797	-7.77
763.022	-7.89
763.248	-3.3
763.473	-2.24
763.698	-2.6
763.923	-2.64
764.148	-2.89
764.373	-3.33
764.598	-2.04
764.823	0.3
765.048	-2.97
765.273	-7.51
765.498	-6.75
765.723	-5.87
765.948	-3.15
766.173	-4.86
766.398	-4.79
766.623	-7.36
766.848	-7.37
767.073	-9
767.298	-9.87
767.522	-9.55
767.747	-9.56
767.972	-10
768.197	-8.52
768.421	-9.9
768.646	-12.09
768.871	-16.24
769.095	-16.72
769.32	-16.15
769.545	-15.42
769.769	-15.28
769.994	-13.24
770.218	-17.61
770.443	-16.67
770.667	-14.65
770.892	-13.14
771.116	-13.81
771.341	-11.66
771.565	-11.26
771.79	-11.41
772.014	-11.35
772.238	-10.83
772.463	-8.39
772.687	-7.23
772.911	-10.11
773.136	-12.2
773.36	-10.44
773.584	-10.55
773.808	-12.72
774.033	-10.52
774.257	-9.3
774.481	-10.14
774.705	-10.52
774.929	-8.92
775.153	-9.28
775.377	-8
775.602	-8
775.826	-5.11
776.05	-2.32
776.274	-2.63
776.498	-2.87
776.722	-2.47
776.945	-2.16
777.169	-1.88
777.393	-3.36
777.617	-4.85
777.841	-6.47
778.065	-5.21
778.289	-6.46
778.512	-7.81
778.736	-6.81
778.96	-6.58
779.184	-4.18
779.407	-5.49
779.631	-4.97
779.855	-3.75
780.078	-1.17
780.302	-3.4
780.526	-5.32
780.749	-4.63
780.973	-4.38
781.196	-5.25
781.42	-7.27
781.643	-6.78
781.867	-6.16
782.09	-8.85
782.314	-8.19
782.537	-8.24
782.76	-9.1
782.984	-7.88
783.207	-7.94
783.431	-8.23
783.654	-9.94
783.877	-12.76
784.1	-12.69
784.324	-12.74
784.547	-13.42
784.77	-16.36
784.993	-17.89
785.216	-19.49
785.44	-18.74
785.663	-20.52
785.886	-18.93
786.109	-19.84
786.332	-20.81
786.555	-20.84
786.778	-20.25
787.001	-20.48
787.224	-20.17
787.447	-18.25
787.67	-16.06
787.893	-17.1
788.116	-16.88
788.339	-13.98
788.561	-14.91
788.784	-18.19
789.007	-19.08
789.23	-20.91
789.453	-22.03
789.675	-23.76
789.898	-26.58
790.121	-28.71
790.344	-28.65
790.566	-27.68
790.789	-27.32
791.012	-26.98
791.234	-24.18
791.457	-20.22
791.679	-17.98
791.902	-17.42
792.124	-16.3
792.347	-16.94
792.569	-17.27
792.792	-20.99
793.014	-17.92
793.237	-16.72
793.459	-16.96
793.681	-16.71
793.904	-17.52
794.126	-16.26
794.348	-17.37
794.571	-16.45
794.793	-18.51
795.015	-17.81
795.237	-18.35
795.46	-17.49
795.682	-17.37
795.904	-14.53
796.126	-17.52
796.348	-16.49
796.57	-12.56
796.792	-12.58
797.014	-8.45
797.237	-4.76
797.459	-2.09
797.681	0.46
797.903	-2.14
798.124	-1.59
798.346	8.93
798.568	9.4
798.79	13.75
799.012	15.05
799.234	16.25
799.456	16.75
799.678	21.08
799.899	17.76
800.121	15.87
800.343	16.4
800.565	17.07
800.786	17.95
801.008	18.74
801.23	18.87
801.451	18.96
801.673	19.42
801.895	18.47
802.116	19.66
802.338	20.44
802.559	20.82
802.781	19.72
803.002	23.3
803.224	24.23
803.445	20.47
803.667	21.82
803.888	20.39
804.109	17.9
804.331	16.76
804.552	15.71
804.773	18.68
804.995	15.22
805.216	1.61
805.437	-0.46
805.658	-3.44
805.88	-4.09
806.101	-2.33
806.322	-1.74
806.543	-3.15
806.764	-4.45
806.985	-2.71
807.207	-2.24
807.428	-2.85
807.649	-6.18
807.87	-9.76
808.091	-8.82
808.312	-8.22
808.533	-3.97
808.754	-1.31
808.975	-3.67
809.195	-2.49
809.416	-1.49
809.637	-2.07
809.858	-3.94
810.079	-5.58
810.3	-3.36
810.52	-4.39
810.741	-6.02
810.962	-6.36
811.183	-7.87
811.403	-8.24
811.624	-9.44
811.845	-7.65
812.065	-5.91
812.286	-5.36
812.506	-5.41
812.727	-6.38
812.948	-7.81
813.168	-5.04
813.389	-7.44
813.609	-6.78
813.83	-7.94
814.05	-8.76
814.27	-8.38
814.491	-5.28
814.711	-4.8
814.931	-7.88
815.152	-8.76
815.372	-11.48
815.592	-13.92
815.813	-14.56
816.033	-15.62
816.253	-15.28
816.473	-15.64
816.694	-14.49
816.914	-13.09
817.134	-12.66
817.354	-13.57
817.574	-12.52
817.794	-11.84
818.014	-12.09
818.234	-12.18
818.454	-13.24
818.674	-14.56
818.894	-18.13
819.114	-13.04
819.334	-12.46
819.554	-10.53
819.774	-7.52
819.994	-9.44
820.214	-8.81
820.433	-7.4
820.653	-8.66
820.873	-6.54
821.093	-6.06
821.312	-7.51
821.532	-5.99
821.752	-1.48
821.972	-2.4
822.191	-0.77
822.411	-0.96
822.63	0.18
822.85	0.19
823.07	-1.86
823.289	-1.51
823.509	-2.02
823.728	-0.48
823.948	-2.34
824.167	-4.1
824.387	-4.45
824.606	-4.26
824.825	-6.55
825.045	-6.58
825.264	-6.46
825.483	-5.87
825.703	-2.77
825.922	-7.54
826.141	-9.42
826.361	-10.5
826.58	-14.2
826.799	-17.27
827.018	-16.59
827.237	-15.97
827.456	-13.12
827.676	-13.86
827.895	-13.67
828.114	-12.42
828.333	-10.76
828.552	-12.59
828.771	-12.3
828.99	-14.66
829.209	-15.74
829.428	-12.95
829.647	-13.18
829.866	-12.39
830.084	-12.62
830.303	-13.1
830.522	-13.14
830.741	-12.36
830.96	-11.53
831.179	-10.52
831.397	-11.98
831.616	-10.14
831.835	-11.2
832.053	-9.42
832.272	-8.84
832.491	-8.9
832.709	-8.98
832.928	-9.07
833.147	-8.48
833.365	-6.78
833.584	-3.23
833.802	-1
834.021	-1.59
834.239	-0.37
834.458	-1.54
834.676	-4.98
834.894	-5.69
835.113	-7.59
835.331	-8.24
835.55	-8.33
835.768	-6.77
835.986	-4.4
836.204	-6.71
836.423	-5.94
836.641	-6.99
836.859	-7.82
837.077	-6.68
837.296	-7.52
837.514	-9.94
837.732	-9.94
837.95	-11.05
838.168	-8.62
838.386	-9.74
838.604	-6.34
838.822	-6.65
839.04	-6.91
839.258	-5.49
839.476	-3.71
839.694	-3.42
839.912	-5.28
840.13	-6.66
840.348	-5.84
840.566	-8.4
840.783	-7.58
841.001	-10.31
841.219	-9.76
841.437	-8.46
841.655	-7.86
841.872	-8.14
842.09	-8.48
842.308	-7.62
842.525	-7.93
842.743	-6.53
842.961	-8.09
843.178	-11.62
843.396	-7.5
843.613	-6.3
843.831	-5.81
844.048	-5.48
844.266	-3.77
844.483	-4.46
844.701	-5.66
844.918	-5.7
845.136	-5.58
845.353	-7.3
845.57	-6.5
845.788	-3.41
846.005	-5.84
846.222	-6.96
846.439	-4.97
846.657	-3.93
846.874	-4.16
847.091	-5.19
847.308	-2.42
847.526	-3.52
847.743	-1.44
847.96	-2.67
848.177	-1.87
848.394	-3.11
848.611	-2.7
848.828	-2.41
849.045	-5.03
849.262	-5.54
849.479	-7.81
849.696	-7.2
849.913	-6.58
850.13	-11.68
850.347	-9.51
850.564	-9.69
850.78	-11.8
850.997	-14.48
851.214	-14.07
851.431	-13.31
851.647	-16.56
851.864	-14.58
852.081	-13.39
852.298	-17.15
852.514	-19.42
852.731	-17.79
852.948	-16.92
853.164	-16.42
853.381	-16.31
853.597	-16.29
853.814	-18.78
854.03	-22.47
854.247	-20.96
854.463	-22.02
854.68	-22.89
854.896	-22.59
855.113	-20.21
855.329	-20.13
855.545	-17.79
855.762	-17.22
855.978	-20.76
856.194	-21.71
856.411	-18.73
856.627	-16.4
856.843	-15.16
857.059	-13.98
857.275	-16.18
857.492	-13.86
857.708	-9.59
857.924	-8.42
858.14	-5.13
858.356	-4.81
858.572	-5.94
858.788	-7.88
859.004	-5.69
859.22	-7.44
859.436	-7.11
859.652	-8.45
859.868	-10.77
860.084	-10.88
860.3	-9.63
860.516	-9.95
860.731	-9.25
860.947	-11.69
861.163	-10.92
861.379	-9.03
861.595	-7.92
861.81	-8.57
862.026	-8.2
862.242	-8.92
862.457	-8.1
862.673	-5.4
862.889	-5.44
863.104	-5.94
863.32	-6.98
863.535	-5.66
863.751	-9.76
863.966	-6.68
864.182	-6.58
864.397	-8.87
864.613	-10.75
864.828	-13.99
865.044	-13.09
865.259	-10.6
865.474	-9.74
865.69	-7.49
865.905	-5.71
866.12	-8.54
866.336	-8.58
866.551	-7
866.766	-7.63
866.981	-10.69
867.196	-9.48
867.412	-8.95
867.627	-9.07
867.842	-10.18
868.057	-11.94
868.272	-13.01
868.487	-13.41
868.702	-15.03
868.917	-15.64
869.132	-15.32
869.347	-13.29
869.562	-14.12
869.777	-13.82
869.992	-13.65
870.207	-15.18
870.422	-14.5
870.636	-15.09
870.851	-14.87
871.066	-15.98
871.281	-15.58
871.495	-16.89
871.71	-14.02
871.925	-17.18
872.14	-18.57
872.354	-22.06
872.569	-23.99
872.783	-22.1
872.998	-22.04
873.213	-21.31
873.427	-18.19
873.642	-16.53
873.856	-17.26
874.071	-17.44
874.285	-17.71
874.5	-18.29
874.714	-18.51
874.928	-19.24
875.143	-21.17
875.357	-20.79
875.571	-22.21
875.786	-21.74
876	-20.5
876.214	-17.49
876.429	-20.71
876.643	-20.28
876.857	-18
877.071	-17.59
877.285	-18.65
877.499	-23.92
877.714	-20.23
877.928	-19.03
878.142	-19.31
878.356	-22.09
878.57	-21.55
878.784	-20.45
878.998	-21.28
879.212	-18.6
879.426	-20.29
879.639	-18.15
879.853	-20.41
880.067	-21.54
880.281	-21.7
880.495	-19.09
880.709	-16.68
880.922	-16.03
881.136	-13.86
881.35	-11.6
881.564	-10.77
881.777	-11.68
881.991	-12.1
882.205	-8.88
882.418	-9.4
882.632	-12.13
882.845	-12.66
883.059	-11.28
883.273	-12.51
883.486	-13.7
883.7	-10.34
883.913	-11.62
884.126	-7.63
884.34	-12.37
884.553	-13.3
884.767	-7.74
884.98	-6.37
885.193	-6.19
885.407	-6.36
885.62	-2.99
885.833	-3.67
886.046	-1.52
886.26	-2.4
886.473	-2.51
886.686	-3.72
886.899	-2.72
887.112	-5
887.326	-7.56
887.539	-5.26
887.752	-4.47
887.965	-7.15
888.178	-7.65
888.391	-7.88
888.604	-7.83
888.817	-8.7
889.03	-7.21
889.243	-7.5
889.455	-10.01
889.668	-9.54
889.881	-6.13
890.094	-7.72
890.307	-11.61
890.52	-10.54
890.732	-9.78
890.945	-8.91
891.158	-8.47
891.37	-12.53
891.583	-13.53
891.796	-12.65
892.008	-14.45
892.221	-16.15
892.434	-19.54
892.646	-20.71
892.859	-21.63
893.071	-19.34
893.284	-17.37
893.496	-18.05
893.709	-17.2
893.921	-16.44
894.133	-18.07
894.346	-19.69
894.558	-18.77
894.771	-19.31
894.983	-15.87
895.195	-14.29
895.407	-15.1
895.62	-17.05
895.832	-17.63
896.044	-14.82
896.256	-16.94
896.468	-18.77
896.681	-16.26
896.893	-15.3
897.105	-15.7
897.317	-17.26
897.529	-16
897.741	-15.83
897.953	-12.66
898.165	-14.31
898.377	-16.66
898.589	-14.89
898.801	-16.33
899.013	-13.38
899.224	-9.93
899.436	-7.15
899.648	-8.25
899.86	-10.37
900.072	-7.98
900.283	-7.56
900.495	-5.86
900.707	-5.92
900.919	-7.98
901.13	-7.37
901.342	-8.6
901.554	-10.66
901.765	-10.76
901.977	-12.66
902.188	-13.33
902.4	-13.49
902.611	-15.68
902.823	-16.07
903.034	-18.04
903.246	-19.27
903.457	-20.49
903.669	-21.74
903.88	-21.75
904.091	-21.93
904.303	-20.87
904.514	-24.17
904.725	-21.52
904.936	-18.75
905.148	-18.57
905.359	-14.5
905.57	-14.52
905.781	-17.59
905.992	-19.38
906.204	-19.75
906.415	-19.04
906.626	-21.56
906.837	-19.09
907.048	-21.34
907.259	-21.4
907.47	-22.21
907.681	-22.81
907.892	-19.51
908.103	-19.77
908.314	-21.97
908.525	-18.68
908.735	-17.96
908.946	-18.44
909.157	-19.14
909.368	-16.63
909.579	-14.32
909.789	-16.49
910	-17.52
910.211	-14.61
910.421	-15.09
910.632	-13.5
910.843	-16.37
911.053	-11.54
911.264	-9.65
911.475	-11.69
911.685	-11.94
911.896	-13.69
912.106	-13.41
912.317	-16.13
912.527	-14.94
912.737	-15.53
912.948	-14.3
913.158	-14.49
913.369	-16.62
913.579	-14.21
913.789	-13.89
914	-9.56
914.21	-10.03
914.42	-11.09
914.63	-10.83
914.841	-9.51
915.051	-8.98
915.261	-7.76
915.471	-4.99
915.681	-3.89
915.891	-4.26
916.101	-6.25
916.311	-5.35
916.521	-3.8
916.731	-3.66
916.941	-1.45
917.151	-2.38
917.361	0.78
917.571	-4.07
917.781	-6.46
917.991	-7.77
918.201	-7.28
918.411	-8.83
918.621	-9.52
918.83	-6.92
919.04	-8.9
919.25	-5.45
919.46	-5.65
919.669	-6.98
919.879	-7.81
920.089	-9.47
920.298	-11.07
920.508	-11.4
920.717	-10.09
920.927	-11.56
921.136	-10.73
921.346	-12.72
921.555	-15.94
921.765	-16.29
921.974	-18.66
922.184	-21.39
922.393	-21.08
922.603	-22.03
922.812	-18.87
923.021	-19.69
923.23	-20.19
923.44	-22.24
923.649	-22.34
923.858	-23.15
924.067	-22.89
924.277	-23.17
924.486	-21.41
924.695	-22.5
924.904	-20.21
925.113	-20.88
925.322	-19.22
925.531	-18.85
925.74	-22.04
925.949	-22.95
926.158	-20.5
926.367	-21.68
926.576	-20.42
926.785	-20.11
926.994	-22.08
927.203	-21.75
927.412	-20.95
927.621	-22.62
927.83	-19.51
928.038	-19.2
928.247	-20.73
928.456	-20.23
928.665	-17.31
928.873	-16.51
929.082	-14.94
929.291	-15.72
929.499	-12.92
929.708	-15.01
929.916	-14.61
930.125	-15.93
930.333	-17.34
930.542	-13.65
930.75	-11.53
930.959	-10.83
931.167	-9.81
931.376	-11.19
931.584	-8.84
931.793	-8.66
932.001	-8.5
932.209	-10.06
932.418	-12.23
932.626	-14.09
932.834	-15.09
933.042	-19.69
933.251	-19.63
933.459	-19.25
933.667	-20.33
933.875	-21.61
934.083	-19.8
934.291	-19.1
934.499	-18.22
934.707	-17.85
934.915	-18.2
935.123	-17.77
935.331	-18.93
935.539	-19.23
935.747	-19.84
935.955	-21.47
936.163	-20.51
936.371	-20.37
936.579	-18.07
936.787	-17.33
936.995	-20.2
937.202	-23.59
937.41	-23.51
937.618	-23.41
937.826	-22.56
938.033	-27.13
938.241	-30.58
938.449	-28.04
938.656	-25.66
938.864	-25.21
939.071	-25.08
939.279	-20.44
939.486	-16.35
939.694	-16.75
939.901	-17.47
940.109	-16.68
940.316	-16.15
940.524	-17.62
940.731	-18.65
940.939	-17.07
941.146	-16.28
941.353	-17.47
941.561	-17.63
941.768	-18.86
941.975	-18.31
942.182	-19.24
942.39	-19.18
942.597	-15.48
942.804	-15.42
943.011	-16.7
943.218	-16.34
943.425	-16.55
943.632	-15.45
943.839	-16.27
944.046	-19.1
944.253	-20.33
944.46	-19.39
944.667	-15.3
944.874	-17.09
945.081	-16.55
945.288	-15.01
945.495	-12.8
945.702	-13.94
945.909	-17.11
946.115	-15.94
946.322	-16.55
946.529	-18.79
946.736	-17.84
946.942	-15.52
947.149	-16.92
947.356	-19.31
947.562	-21.63
947.769	-20.47
947.976	-21.84
948.182	-18.78
948.389	-20.97
948.595	-20.13
948.802	-19.73
949.008	-21.65
949.215	-21.08
949.421	-21.25
949.628	-21.67
949.834	-21.1
950.04	-21.98
950.247	-18.47
950.453	-15.15
950.659	-15.26
950.865	-13.63
951.072	-18.33
951.278	-16.21
951.484	-18.3
951.69	-21
951.896	-22.42
952.103	-24.13
952.309	-21.93
952.515	-21.47
952.721	-19.71
952.927	-17.85
953.133	-18.8
953.339	-19.82
953.545	-19.68
953.751	-18.64
953.957	-15.31
954.163	-16.7
954.369	-16.37
954.574	-19
954.78	-17.89
954.986	-17.56
955.192	-15.74
955.398	-18.04
955.603	-20.52
955.809	-18.55
956.015	-17.71
956.22	-17.7
956.426	-14.97
956.632	-19.24
956.837	-20.06
957.043	-19.89
957.248	-17.78
957.454	-15.74
957.66	-17.59
957.865	-16.73
958.07	-15.26
958.276	-15.96
958.481	-16.53
958.687	-17.09
958.892	-17.99
959.097	-18.37
959.303	-17.79
959.508	-18.77
959.713	-19.36
959.919	-19.2
960.124	-18.68
960.329	-19.2
960.534	-15.52
960.739	-13.62
960.945	-11.36
961.15	-11.93
961.355	-12.55
961.56	-17.19
961.765	-18.15
961.97	-16.72
962.175	-15.18
962.38	-19
962.585	-17.84
962.79	-20.94
962.995	-20.25
963.2	-21.76
963.404	-21.9
963.609	-24.96
963.814	-26.56
964.019	-29.2
964.224	-30.84
964.428	-29.39
964.633	-28.09
964.838	-25.66
965.042	-25.5
965.247	-26.43
965.452	-26.78
965.656	-25.81
965.861	-24.51
966.066	-25.32
966.27	-22.92
966.475	-19.56
966.679	-22.13
966.884	-23.23
967.088	-25.54
967.292	-26.97
967.497	-25.9
967.701	-27.12
967.906	-24.48
968.11	-19.84
968.314	-16.13
968.518	-19.11
968.723	-15.49
968.927	-15.16
969.131	-13.62
969.335	-11.49
969.539	-10.55
969.744	-9.24
969.948	-6.81
970.152	-4.89
970.356	-2.84
970.56	-2.1
970.764	-3.65
970.968	-1.55
971.172	-3.03
971.376	-2
971.58	-1.09
971.784	-1.2
971.988	-3.52
972.192	-0.94
972.395	-1.63
972.599	-5.18
972.803	-7.86
973.007	-6.86
973.21	-6.43
973.414	-6.1
973.618	-5.1
973.822	-4.99
974.025	-3.72
974.229	-4.22
974.432	-8.61
974.636	-12.18
974.84	-10.65
975.043	-10.07
975.247	-11.96
975.45	-13.9
975.654	-12.81
975.857	-11.43
976.06	-12.52
976.264	-15.28
976.467	-14.13
976.671	-15.57
976.874	-13.42
977.077	-13.56
977.28	-15.72
977.484	-18.12
977.687	-18.8
977.89	-17.62
978.093	-16.96
978.297	-15.7
978.5	-17.85
978.703	-16.35
978.906	-14.51
979.109	-14.27
979.312	-13.32
979.515	-14.38
979.718	-15.67
979.921	-16.89
980.124	-19.07
980.327	-19.93
980.53	-18.3
980.733	-16.81
980.936	-13.45
981.138	-15.17
981.341	-15.2
981.544	-14.3
981.747	-13.61
981.949	-15.89
982.152	-16.31
982.355	-16.86
982.558	-12.07
982.76	-15.08
982.963	-14.36
983.165	-15.53
983.368	-14.79
983.571	-14.5
983.773	-10.36
983.976	-10.81
984.178	-9.58
984.381	-10.21
984.583	-12.64
984.785	-12.84
984.988	-10.5
985.19	-7.71
985.392	-8.66
985.595	-11.76
985.797	-10.72
985.999	-7.42
986.202	-5.67
986.404	-4.86
986.606	-1.82
986.808	-4.01
987.01	-2.26
987.212	-2.71
987.415	-3.37
987.617	-4.1
987.819	-5.03
988.021	-4.76
988.223	-6.9
988.425	-7.58
988.627	-7.62
988.829	-13.7
989.031	-12.25
989.232	-13.11
989.434	-10.72
989.636	-10.8
989.838	-9.64
990.04	-9.75
990.242	-10.17
990.443	-12.61
990.645	-10.2
990.847	-6.75
991.048	-5.52
991.25	-6.87
991.452	-9.81
991.653	-11.64
991.855	-10.53
992.057	-11.83
992.258	-11.61
992.46	-11.47
992.661	-10.82
992.863	-12.01
993.064	-10.97
993.265	-12.97
993.467	-17.04
993.668	-14.88
993.87	-13.83
994.071	-15.33
994.272	-14.01
994.473	-10.8
994.675	-9.04
994.876	-6.53
995.077	-5.84
995.278	-4.62
995.48	-4.7
995.681	-7.19
995.882	-5.95
996.083	-7.43
996.284	-11.27
996.485	-10.77
996.686	-11.71
996.887	-13.82
997.088	-17.98
997.289	-20.64
997.49	-21.29
997.691	-20.95
997.892	-19.78
998.092	-15.56
998.293	-15.26
998.494	-15.68
998.695	-16.87
998.896	-14.22
999.096	-15.05
999.297	-14.49
999.498	-15.57
999.698	-15.96
999.899	-18.27
1000.1	-20.57
1000.3	-18.26
1000.501	-19.52
1000.701	-20.59
1000.902	-22.05
1001.102	-23.84
1001.303	-21.48
1001.503	-23.37
1001.704	-21.51
1001.904	-21.92
1002.105	-23.69
1002.305	-24.05
1002.505	-23.67
1002.706	-24.37
1002.906	-24.39
1003.106	-24.89
1003.306	-24.12
1003.507	-21.85
1003.707	-22.66
1003.907	-20.22
1004.107	-20.53
1004.307	-21.91
1004.507	-21
1004.707	-22.21
1004.907	-23.89
1005.107	-24.42
1005.308	-24.3
1005.507	-26.27
1005.707	-22.91
1005.907	-21.83
1006.107	-20.44
1006.307	-18.36
1006.507	-19.77
1006.707	-18.98
1006.907	-19.32
1007.106	-20.2
1007.306	-20.2
1007.506	-19.31
1007.706	-20.23
1007.905	-22.51
1008.105	-23.3
1008.305	-23.97
1008.504	-22.82
1008.704	-17.96
1008.903	-16.54
1009.103	-14.09
1009.303	-15.87
1009.502	-13.43
1009.702	-14.42
1009.901	-13.27
1010.1	-17.93
1010.3	-16.02
1010.499	-17.39
1010.699	-19.37
1010.898	-19.17
1011.097	-18.48
1011.296	-19.71
1011.496	-20.36
1011.695	-21.26
1011.894	-23.16
1012.093	-20.25
1012.293	-19.12
1012.492	-21.12
1012.691	-20.64
1012.89	-21.49
1013.089	-23.45
1013.288	-21.39
1013.487	-21.06
1013.686	-22.36
1013.885	-22.54
1014.084	-21.46
1014.283	-21.77
1014.482	-21.24
1014.681	-21.47
1014.88	-25.9
1015.078	-25.51
1015.277	-28.24
1015.476	-28.33
1015.675	-29.32
1015.873	-27.76
1016.072	-29.75
1016.271	-24.93
1016.47	-27.45
1016.668	-26.77
1016.867	-26.76
1017.065	-28.75
1017.264	-28.41
1017.463	-27.79
1017.661	-27.14
1017.86	-26.32
1018.058	-25.11
1018.256	-28.23
1018.455	-30.26
1018.653	-28.2
1018.852	-26.9
1019.05	-28.78
1019.248	-30.45
1019.447	-32.3
1019.645	-31.58
1019.843	-33.67
1020.041	-33.42
1020.24	-32.48
1020.438	-27.93
1020.636	-28.31
1020.834	-30.75
1021.032	-28.82
1021.23	-30.78
1021.428	-29.3
1021.626	-24.61
1021.824	-24.27
1022.022	-25.96
1022.22	-23.79
1022.418	-23.62
1022.616	-25.42
1022.814	-26.7
1023.012	-26.77
1023.21	-24.64
1023.408	-24.95
1023.606	-26.16
1023.803	-21.24
1024.001	-21.28
1024.199	-24.25
1024.397	-22.81
1024.594	-22.9
1024.792	-25.52
1024.99	-24.86
1025.187	-23.68
1025.385	-17.96
1025.582	-17.09
1025.78	-18.65
1025.977	-17
1026.175	-15.46
1026.372	-15.46
1026.57	-17.89
1026.767	-14.27
1026.965	-13.1
1027.162	-12.35
1027.359	-12.39
1027.557	-11.67
1027.754	-14.81
1027.951	-16.22
1028.148	-14.34
1028.346	-15.89
1028.543	-19.53
1028.74	-18.92
1028.937	-21.76
1029.134	-21.18
1029.331	-22.03
1029.528	-22.59
1029.725	-22.09
1029.923	-26.02
1030.12	-20.55
1030.317	-18.67
1030.513	-17.79
1030.71	-15.59
1030.907	-11.94
1031.104	-13.75
1031.301	-14.29
1031.498	-14.69
1031.695	-16.14
1031.892	-15.72
1032.088	-14.9
1032.285	-17.08
1032.482	-18.53
1032.678	-21.89
1032.875	-26.46
1033.072	-25.9
1033.268	-26.3
1033.465	-25.82
1033.662	-28.55
1033.858	-29.28
1034.055	-28.86
1034.251	-27.19
1034.448	-27.51
1034.644	-26.77
1034.84	-24.78
1035.037	-20.25
1035.233	-19.93
1035.43	-18.71
1035.626	-18.59
1035.822	-19.26
1036.019	-20.99
1036.215	-26.25
1036.411	-27.08
1036.607	-28.53
1036.803	-31.42
1037	-33.77
1037.196	-35.14
1037.392	-35.35
1037.588	-38.15
1037.784	-36.65
1037.98	-37.52
1038.176	-37.51
1038.372	-36.6
1038.568	-35.32
1038.764	-32.37
1038.96	-29.64
1039.156	-31.34
1039.352	-31.73
1039.547	-31.35
1039.743	-29.61
1039.939	-27.28
1040.135	-27.2
1040.331	-29.54
1040.526	-27.52
1040.722	-28.56
1040.918	-28.72
1041.113	-32.25
1041.309	-32.47
1041.505	-34.71
1041.7	-33.44
1041.896	-34.47
1042.091	-35.4
1042.287	-36.01
1042.482	-35.48
1042.678	-35.57
1042.873	-34.59
1043.069	-34.86
1043.264	-33.8
1043.459	-32.58
1043.655	-31.27
1043.85	-32.12
1044.045	-30.72
1044.24	-31.54
1044.436	-30.64
1044.631	-32.13
1044.826	-33.42
1045.021	-35.32
1045.216	-33.59
