Data from led_4000k_2_FLMT021711__20__17-35-05-300.txt Node

Date: Tue Nov 05 17:35:05 CET 2024
User: Etudiants TP
Spectrometer: FLMT02171
Trigger mode: 0
Integration Time (sec): 1.000000E-1
Scans to average: 5
Electric dark correction enabled: true
Nonlinearity correction enabled: true
Boxcar width: 15
XAxis mode: Wavelengths
Number of Pixels in Spectrum: 3648
>>>>>Begin Spectral Data<<<<<
194.658	-60.06
194.923	-58.9
195.188	-53.01
195.453	-52.8
195.717	-46.33
195.982	-44.82
196.247	-42.46
196.512	-45.02
196.777	-43.85
197.042	-43.3
197.307	-43.14
197.572	-40.21
197.837	-41.03
198.101	-38.98
198.366	-36.03
198.631	-34.27
198.896	-28.89
199.161	-21.71
199.425	-15.05
199.69	-5.04
199.955	-5.21
200.22	-7.7
200.484	-7.74
200.749	-7.89
201.014	-7.22
201.278	-8.24
201.543	-7.7
201.807	-8.26
202.072	-7.26
202.337	-6.55
202.601	-6.24
202.866	-7.72
203.13	-5.59
203.395	-7.45
203.659	-6.97
203.924	-9.42
204.189	-8.51
204.453	-8.43
204.717	-6.41
204.982	-5.9
205.246	-3.51
205.511	-2.18
205.775	-1.76
206.04	5.01
206.304	5.87
206.568	7.19
206.833	7.06
207.097	8.05
207.361	8.84
207.626	12.51
207.89	14.6
208.154	15.96
208.419	18.6
208.683	18.47
208.947	21.21
209.211	22.05
209.476	22.6
209.74	23.34
210.004	22.53
210.268	23.33
210.532	25.85
210.796	25.72
211.061	26.26
211.325	26.43
211.589	25.13
211.853	25.82
212.117	26.38
212.381	26.71
212.645	27.37
212.909	27.3
213.173	25.93
213.437	26.28
213.701	27.01
213.965	28.12
214.229	22.14
214.493	22.12
214.757	21.64
215.021	21.3
215.285	24.01
215.549	25.16
215.813	22.22
216.077	19.29
216.34	21.31
216.604	20.02
216.868	20.66
217.132	21.53
217.396	20.06
217.659	20.35
217.923	16.21
218.187	17.09
218.451	15.61
218.714	13.63
218.978	12.45
219.242	14.29
219.505	14.76
219.769	17.24
220.033	16.44
220.296	16.75
220.56	17.66
220.824	15.02
221.087	16.28
221.351	16.39
221.614	15.42
221.878	16.23
222.142	14.76
222.405	16.14
222.669	17.85
222.932	12.05
223.196	9.58
223.459	7.41
223.722	8.41
223.986	7.36
224.249	7.28
224.513	7.59
224.776	7.66
225.04	7.3
225.303	5.87
225.566	6.05
225.83	7.67
226.093	11.16
226.356	9.02
226.62	7.34
226.883	8.89
227.146	10.05
227.409	9.21
227.673	7.65
227.936	5.3
228.199	5.57
228.462	3.55
228.725	1.13
228.989	0.98
229.252	2.13
229.515	6.09
229.778	4.94
230.041	3.38
230.304	0.67
230.567	1.57
230.83	-1.19
231.093	3.03
231.356	3.59
231.619	10.54
231.882	8.85
232.145	10.3
232.408	9.76
232.671	8.31
232.934	7.01
233.197	5.47
233.46	3.43
233.723	5.05
233.986	3.73
234.249	1.89
234.512	3.8
234.775	7.43
235.037	6.3
235.3	6.8
235.563	7.61
235.826	8.18
236.089	10.79
236.351	10.86
236.614	13.86
236.877	14.61
237.14	16.68
237.402	16.14
237.665	11.34
237.928	10.56
238.19	9.23
238.453	12.12
238.716	10.01
238.978	10.32
239.241	8.94
239.503	11.56
239.766	5.37
240.029	4.15
240.291	7.09
240.554	6.52
240.816	5.44
241.079	5.66
241.341	5.2
241.604	5
241.866	1.48
242.129	1.18
242.391	2.34
242.653	1.29
242.916	0.88
243.178	-0.39
243.441	-0.99
243.703	-2.45
243.965	-4.27
244.228	-4.03
244.49	-3.85
244.752	-2.88
245.015	-1.15
245.277	1.96
245.539	0.99
245.801	2.02
246.064	1.8
246.326	1.39
246.588	0.48
246.85	3.09
247.112	3.79
247.374	5.01
247.637	7.31
247.899	7.34
248.161	7.97
248.423	3.52
248.685	3.67
248.947	2.88
249.209	3.4
249.471	4.46
249.733	5.41
249.995	5.07
250.257	4.93
250.519	3.47
250.781	7.08
251.043	4.76
251.305	8.32
251.567	10.52
251.829	10.77
252.091	10.13
252.353	6.9
252.615	6.84
252.876	4.54
253.138	2.72
253.4	-2.31
253.662	-0.67
253.924	2.05
254.185	3.58
254.447	4.63
254.709	5.71
254.971	5.98
255.232	7.53
255.494	6.45
255.756	4.69
256.017	5.83
256.279	6.64
256.541	6.05
256.802	6.62
257.064	8.38
257.326	8.38
257.587	9.27
257.849	10.62
258.11	13.47
258.372	15.07
258.633	16.46
258.895	14.95
259.156	15.27
259.418	12.6
259.679	7.76
259.941	6.2
260.202	8.92
260.464	11.6
260.725	10.19
260.987	9.56
261.248	8.48
261.509	8.74
261.771	6.85
262.032	7.61
262.293	8.27
262.555	8.53
262.816	7.67
263.077	6.23
263.338	4.17
263.6	5.27
263.861	4.71
264.122	3.88
264.383	5.69
264.645	7.88
264.906	6.8
265.167	7.56
265.428	5.74
265.689	6.91
265.95	5.47
266.211	6.1
266.473	4.75
266.734	1.67
266.995	-1.86
267.256	-0.86
267.517	2.33
267.778	6.67
268.039	8.76
268.3	6.11
268.561	2.85
268.822	7.78
269.083	5.35
269.344	4.34
269.604	5.18
269.865	5.53
270.126	1.39
270.387	2.26
270.648	2.9
270.909	0.51
271.17	-0.34
271.43	-3.95
271.691	-6.85
271.952	-8.51
272.213	-6.98
272.473	-9.71
272.734	-8.68
272.995	-6.7
273.256	-6.87
273.516	-3.42
273.777	-6.44
274.038	-5.29
274.298	-6.83
274.559	-6.96
274.82	-3.27
275.08	-0.41
275.341	0.59
275.601	-2.09
275.862	-4.83
276.122	-4.69
276.383	-3.52
276.643	-1.28
276.904	-3.58
277.164	1.1
277.425	1.39
277.685	4.78
277.946	6.19
278.206	7.64
278.467	8.75
278.727	8.94
278.987	9.04
279.248	9.28
279.508	11.78
279.768	13.96
280.029	15.92
280.289	11.82
280.549	11.01
280.81	11.57
281.07	9.88
281.33	11.74
281.59	10.12
281.851	12.4
282.111	11.65
282.371	11.27
282.631	13.08
282.891	13.22
283.151	11.38
283.412	8.19
283.672	9.18
283.932	9.55
284.192	10.53
284.452	9.71
284.712	7.52
284.972	6.14
285.232	3.03
285.492	6.86
285.752	3.55
286.012	8.27
286.272	9.58
286.532	6.4
286.792	6.65
287.052	8.79
287.312	8.54
287.571	6.49
287.831	7.16
288.091	4.14
288.351	5.67
288.611	10.35
288.871	8.09
289.13	8.21
289.39	2.98
289.65	3.03
289.91	1.4
290.17	4.06
290.429	5.42
290.689	2.36
290.949	-2.75
291.208	-0.74
291.468	3.81
291.728	4.44
291.987	6.48
292.247	3.99
292.506	7.16
292.766	10.31
293.026	8.95
293.285	10.1
293.545	10.92
293.804	12.02
294.064	9.02
294.323	8.71
294.583	9.72
294.842	9.11
295.102	8.78
295.361	8.38
295.621	10.39
295.88	10.33
296.139	10.93
296.399	10.94
296.658	5.39
296.917	6.93
297.177	4.63
297.436	6.03
297.695	5.22
297.955	6.03
298.214	3.8
298.473	5.23
298.732	8.82
298.992	14.43
299.251	12.96
299.51	8.59
299.769	8.31
300.028	7.68
300.287	8.68
300.547	7.96
300.806	6.17
301.065	10.68
301.324	11.96
301.583	8.02
301.842	5.3
302.101	3.28
302.36	2.55
302.619	2.07
302.878	2.28
303.137	0.81
303.396	3.02
303.655	4.19
303.914	1.05
304.173	1.9
304.432	2.32
304.691	4.84
304.95	1.54
305.208	5.43
305.467	6.18
305.726	5.41
305.985	6.54
306.244	8
306.503	8.22
306.761	5.97
307.02	2.38
307.279	4.67
307.537	5.3
307.796	2.9
308.055	0.33
308.314	1.3
308.572	-1.35
308.831	0.09
309.09	0.13
309.348	0.42
309.607	0.32
309.865	4.54
310.124	3.72
310.382	5.54
310.641	6.23
310.9	5.79
311.158	7.14
311.417	6.61
311.675	6.75
311.933	7.96
312.192	8.24
312.45	8.45
312.709	7.67
312.967	7.68
313.226	8.32
313.484	8.86
313.742	6.76
314.001	5.54
314.259	3.8
314.517	3.15
314.776	4.12
315.034	6.67
315.292	3.76
315.55	2.43
315.809	1.35
316.067	1.96
316.325	0.73
316.583	3.36
316.841	1.26
317.1	-2.29
317.358	-5.11
317.616	-6.36
317.874	-9.15
318.132	-9.34
318.39	-9.36
318.648	-10.85
318.906	-12.69
319.164	-13.6
319.422	-14.67
319.68	-15.43
319.938	-15.64
320.196	-15.55
320.454	-15.26
320.712	-15.11
320.97	-14.36
321.228	-16.89
321.486	-15.2
321.744	-12.61
322.002	-10.45
322.26	-10.85
322.517	-11.2
322.775	-13.32
323.033	-14.88
323.291	-12.86
323.549	-10.23
323.806	-6.9
324.064	-6.41
324.322	-5.85
324.58	-8.01
324.837	-5.3
325.095	-5.35
325.353	-3.19
325.61	-0.62
325.868	-1.14
326.126	0.88
326.383	-1.97
326.641	-2.91
326.898	-0.69
327.156	-0.61
327.413	-0.25
327.671	-0.5
327.928	2.08
328.186	2.28
328.443	2.47
328.701	7
328.958	8.4
329.216	9.37
329.473	7.65
329.731	8.38
329.988	7.43
330.245	9.01
330.503	10.68
330.76	11.22
331.017	12.77
331.275	10.41
331.532	9.61
331.789	6.17
332.047	6.71
332.304	4.42
332.561	5.13
332.818	1.98
333.076	3.16
333.333	3.37
333.59	3.28
333.847	5.21
334.104	4.03
334.361	4.36
334.618	4.28
334.876	2.71
335.133	2
335.39	1.26
335.647	2.91
335.904	-1.83
336.161	-4.07
336.418	-4.84
336.675	-9.06
336.932	-8.58
337.189	-9.76
337.446	-9.69
337.703	-11.32
337.96	-15.15
338.216	-15.06
338.473	-19.4
338.73	-19.52
338.987	-19.25
339.244	-15.83
339.501	-18.15
339.757	-15.75
340.014	-15.83
340.271	-14.07
340.528	-14.23
340.785	-9.49
341.041	-8.72
341.298	-11.01
341.555	-11.46
341.811	-12.07
342.068	-14.67
342.325	-14.38
342.581	-12.54
342.838	-12.05
343.094	-10.46
343.351	-10.68
343.608	-13.86
343.864	-9.62
344.121	-7
344.377	-8.52
344.634	-9.81
344.89	-9.99
345.147	-9.31
345.403	-10.89
345.66	-9.77
345.916	-7.74
346.172	-9.43
346.429	-9.07
346.685	-10.13
346.942	-9.57
347.198	-13.49
347.454	-10.6
347.711	-9.36
347.967	-11.7
348.223	-10.26
348.48	-9.66
348.736	-5.18
348.992	-6.77
349.248	-4.99
349.504	-3.65
349.761	-3.66
350.017	-2.83
350.273	-3.33
350.529	-3.45
350.785	-2.41
351.041	-3.47
351.297	-2.75
351.554	-3.37
351.81	-4.61
352.066	-5.88
352.322	-4.8
352.578	-4.03
352.834	-5.95
353.09	-6.47
353.346	-6.39
353.602	-8.74
353.858	-8.65
354.114	-9.21
354.369	-7.13
354.625	-4.93
354.881	-6.69
355.137	-3.29
355.393	-4.46
355.649	-6.47
355.905	-6.11
356.16	-6.83
356.416	-6.46
356.672	-15.46
356.928	-14.34
357.183	-13.87
357.439	-13.97
357.695	-15.56
357.951	-11.24
358.206	-10.62
358.462	-11.73
358.718	-14.01
358.973	-13.58
359.229	-12.07
359.484	-11.66
359.74	-8.84
359.996	-8.83
360.251	-5.55
360.507	-4.96
360.762	-4.73
361.018	-2.66
361.273	-3.79
361.529	-1.6
361.784	-1.43
362.04	0.72
362.295	0.04
362.55	-1.29
362.806	1.3
363.061	0.12
363.316	2.03
363.572	3.44
363.827	5.25
364.082	2.36
364.338	2.17
364.593	3.35
364.848	4.91
365.104	2.87
365.359	3.92
365.614	4.66
365.869	0.7
366.124	1.84
366.38	1.95
366.635	3.95
366.89	5.3
367.145	3.86
367.4	7.7
367.655	7.42
367.91	7.37
368.165	5.04
368.42	1.64
368.675	3.57
368.93	3.34
369.185	1.44
369.44	0.96
369.695	2.9
369.95	1.08
370.205	0.56
370.46	1.63
370.715	-0.53
370.97	1.43
371.225	0.07
371.48	1.08
371.734	1.63
371.989	2.97
372.244	1.6
372.499	2.62
372.754	0.58
373.008	-0.65
373.263	-4.88
373.518	-1.83
373.773	-2.53
374.027	-5.88
374.282	-3.72
374.537	-4.34
374.791	-3.14
375.046	-3.53
375.301	-5.98
375.555	-8.81
375.81	-7.14
376.064	-5.52
376.319	-2.03
376.573	-2.75
376.828	-6.82
377.082	-1.61
377.337	-3.04
377.591	-6.53
377.846	-4.81
378.1	-1.52
378.355	-1.86
378.609	-1.87
378.863	-5.58
379.118	-3.65
379.372	-5.35
379.627	-7.88
379.881	-10.15
380.135	-9.43
380.389	-9.11
380.644	-8.64
380.898	-7.31
381.152	-5.35
381.407	-6.76
381.661	-3.58
381.915	-0.17
382.169	-0.75
382.423	-1.6
382.677	-4.47
382.932	-3.07
383.186	-0.55
383.44	0.2
383.694	1.95
383.948	-1.03
384.202	-1.9
384.456	0.07
384.71	3.24
384.964	1.02
385.218	2.87
385.472	3.62
385.726	1.46
385.98	-0.17
386.234	-0.41
386.488	-2.57
386.742	-1.66
386.996	-4.59
387.249	-3.71
387.503	-0.47
387.757	1.59
388.011	1.81
388.265	1.64
388.518	2.85
388.772	3.73
389.026	3.99
389.28	2.54
389.533	0.37
389.787	0.83
390.041	-0.35
390.295	0.37
390.548	0.1
390.802	2.33
391.055	0.26
391.309	-0.24
391.563	-2.47
391.816	-1.78
392.07	-1.87
392.323	-1.85
392.577	-1.59
392.83	0.13
393.084	5.19
393.337	7.97
393.591	9.74
393.844	9.38
394.098	13.37
394.351	18.22
394.604	21.09
394.858	23.71
395.111	23.28
395.364	20.09
395.618	21.92
395.871	21.2
396.124	20.17
396.378	18.5
396.631	18.87
396.884	16.68
397.137	16.8
397.391	17.2
397.644	15.43
397.897	15.17
398.15	16.51
398.403	19.53
398.657	18.47
398.91	17.95
399.163	19.29
399.416	18.6
399.669	17.07
399.922	15.13
400.175	13.55
400.428	13.27
400.681	13.66
400.934	9.5
401.187	8.93
401.44	9.15
401.693	7.31
401.946	3.09
402.199	-3.15
402.452	-6.04
402.704	-10.15
402.957	-10.21
403.21	-8.13
403.463	-8.28
403.716	-8.54
403.969	-6.95
404.221	-6.58
404.474	-5.62
404.727	-2.57
404.98	-0.55
405.232	-0.26
405.485	1.22
405.738	4.47
405.99	4.4
406.243	4.7
406.496	5.98
406.748	5.81
407.001	3.58
407.253	4.63
407.506	7.2
407.759	8.97
408.011	6.48
408.264	7.15
408.516	5.66
408.769	4.23
409.021	4.76
409.274	4.2
409.526	6.72
409.778	6.41
410.031	10.27
410.283	11.16
410.536	16.77
410.788	14.76
411.04	14.38
411.293	14.63
411.545	16.66
411.797	16.43
412.049	14.71
412.302	15.79
412.554	17.05
412.806	15.13
413.058	14.26
413.311	13.85
413.563	12.32
413.815	11.49
414.067	8.13
414.319	7.61
414.571	8.22
414.823	7.76
415.075	6.72
415.328	7.36
415.58	10.32
415.832	11.6
416.084	11.67
416.336	11.4
416.588	14.26
416.84	13.14
417.091	16.95
417.343	14.62
417.595	17.79
417.847	17.79
418.099	19.44
418.351	19.05
418.603	23.45
418.855	24.38
419.106	25.17
419.358	24.39
419.61	24.74
419.862	27.62
420.114	24.73
420.365	24.32
420.617	24.22
420.869	23.42
421.12	22.16
421.372	22.57
421.624	22.67
421.875	25.05
422.127	20.62
422.379	21.01
422.63	24.33
422.882	22.49
423.133	22.06
423.385	21.7
423.636	22.23
423.888	25.15
424.139	28.13
424.391	25.47
424.642	23.36
424.894	21.27
425.145	19.25
425.396	15.67
425.648	18.72
425.899	16.71
426.151	16.04
426.402	14.11
426.653	13.65
426.905	11.96
427.156	10.53
427.407	9.68
427.658	8.67
427.91	7.9
428.161	7.1
428.412	8.89
428.663	9.49
428.914	11.52
429.166	12.9
429.417	13.53
429.668	11.65
429.919	9.87
430.17	9.15
430.421	7.45
430.672	11.65
430.923	10.76
431.174	8.91
431.425	10.2
431.676	8
431.927	3.51
432.178	5.6
432.429	6.53
432.68	5.22
432.931	9.65
433.182	12.63
433.433	9.4
433.683	10.48
433.934	9.12
434.185	7.57
434.436	7.28
434.687	8.15
434.937	9.96
435.188	8.26
435.439	7.19
435.69	8.4
435.94	8.01
436.191	8.78
436.442	8.84
436.692	8.27
436.943	4.28
437.194	2.09
437.444	3.61
437.695	7.88
437.945	10.14
438.196	10.98
438.447	10.45
438.697	10.15
438.948	9.14
439.198	5.2
439.449	1.68
439.699	4.16
439.949	4.28
440.2	4.02
440.45	5.09
440.701	4.75
440.951	3.08
441.201	3.82
441.452	3.65
441.702	3.83
441.952	5.84
442.203	5.69
442.453	4.26
442.703	5.64
442.953	7.73
443.204	8.79
443.454	7.21
443.704	6.71
443.954	4.2
444.204	5.35
444.455	5.88
444.705	9.27
444.955	9.68
445.205	8.91
445.455	7.24
445.705	6.33
445.955	5.16
446.205	3.95
446.455	4.54
446.705	6.47
446.955	7.61
447.205	9.19
447.455	9.42
447.705	6.71
447.955	5.88
448.205	7
448.454	6.33
448.704	9.13
448.954	7.7
449.204	7.58
449.454	8.29
449.704	6.39
449.953	5.82
450.203	9.11
450.453	6.2
450.703	7.63
450.952	6.67
451.202	7.39
451.452	8.44
451.701	11.22
451.951	14.34
452.201	13.6
452.45	12.1
452.7	14.96
452.949	14.3
453.199	14.31
453.448	16.76
453.698	18.69
453.947	18.05
454.197	18.16
454.446	17.02
454.696	20.53
454.945	20.66
455.195	20.59
455.444	22.15
455.693	26.46
455.943	24.28
456.192	26.11
456.442	25.31
456.691	25.72
456.94	24.95
457.189	23.42
457.439	25.56
457.688	27.81
457.937	26.13
458.186	26.35
458.436	26.38
458.685	26.51
458.934	25.5
459.183	24.83
459.432	27.97
459.681	27.81
459.93	28.04
460.179	27.83
460.429	25.74
460.678	30.4
460.927	33.65
461.176	32.23
461.425	31.74
461.674	33.83
461.923	33.83
462.172	32.27
462.42	30.43
462.669	32.92
462.918	31.66
463.167	30.86
463.416	27.33
463.665	28.56
463.914	26.86
464.162	25.31
464.411	26.56
464.66	28.14
464.909	26.94
465.158	26.28
465.406	26.09
465.655	27.65
465.904	29.61
466.152	29.94
466.401	30.47
466.65	32.54
466.898	30.31
467.147	24.81
467.395	24.42
467.644	26.22
467.893	25.85
468.141	24.31
468.39	20.84
468.638	17.05
468.887	13.65
469.135	11.9
469.384	10.91
469.632	11.08
469.88	12.47
470.129	15.57
470.377	12.86
470.626	15.67
470.874	18.35
471.122	19.7
471.371	18.15
471.619	17.54
471.867	20.03
472.115	19.5
472.364	18.75
472.612	22.76
472.86	22.36
473.108	23.31
473.356	23.72
473.605	22.44
473.853	19.55
474.101	19.43
474.349	18.98
474.597	22.21
474.845	21.68
475.093	19.19
475.341	16.82
475.589	16.38
475.837	18.94
476.085	20.98
476.333	21.46
476.581	24.96
476.829	25.16
477.077	28
477.325	27.88
477.573	28.31
477.821	24.61
478.069	25.07
478.317	24.41
478.564	26.36
478.812	24.82
479.06	23.39
479.308	22.07
479.555	22.42
479.803	21.38
480.051	22.4
480.299	20.97
480.546	20.9
480.794	16.97
481.042	16.51
481.289	17.39
481.537	18.77
481.784	18.07
482.032	21.38
482.28	20.73
482.527	20.18
482.775	20.62
483.022	21.26
483.27	23.62
483.517	26.19
483.765	24.74
484.012	23.55
484.259	19.71
484.507	22.82
484.754	22.42
485.002	21.76
485.249	21.04
485.496	25.28
485.744	24.5
485.991	23.18
486.238	20.07
486.486	23.26
486.733	25.16
486.98	28.93
487.227	27.53
487.474	28.87
487.722	31.3
487.969	28.38
488.216	27.94
488.463	29.69
488.71	28.36
488.957	27.04
489.204	26.33
489.451	27.93
489.699	27.15
489.946	24.81
490.193	24.72
490.44	24.13
490.687	24.95
490.934	22.36
491.18	19.36
491.427	19.57
491.674	22.93
491.921	23.62
492.168	22.67
492.415	20.35
492.662	22.9
492.909	24.82
493.155	23.23
493.402	21.5
493.649	20.55
493.896	21.58
494.142	18.01
494.389	17.29
494.636	15.99
494.883	14.02
495.129	12.84
495.376	9.07
495.623	11.93
495.869	14.41
496.116	15.37
496.362	16.72
496.609	19.86
496.855	24.2
497.102	23.48
497.348	22.43
497.595	23.72
497.841	29.47
498.088	29.11
498.334	28.79
498.581	27.83
498.827	28.18
499.074	29.96
499.32	31.1
499.566	35.47
499.813	36.31
500.059	34.87
500.305	34.33
500.552	34.4
500.798	34.06
501.044	39.18
501.29	38.85
501.537	36.71
501.783	39.64
502.029	43.74
502.275	39.3
502.521	37.7
502.767	38.41
503.013	43.32
503.26	41.14
503.506	38.32
503.752	40.31
503.998	39.33
504.244	39.07
504.49	37.06
504.736	38.98
504.982	38.28
505.228	40.76
505.474	39.38
505.72	41.8
505.966	40.64
506.211	44.12
506.457	43.84
506.703	40.76
506.949	39.58
507.195	38.42
507.441	33.66
507.686	38.18
507.932	37.77
508.178	39.37
508.424	37.95
508.669	35.9
508.915	37.95
509.161	41.01
509.406	41.69
509.652	40.55
509.898	46.7
510.143	48.94
510.389	48.26
510.634	45
510.88	48.67
511.125	51.27
511.371	51.8
511.616	52.82
511.862	51.23
512.107	49.4
512.353	50.91
512.598	51.88
512.844	50.3
513.089	48.81
513.335	48.66
513.58	49.95
513.825	51.71
514.071	53.03
514.316	53.5
514.561	54.29
514.806	53.52
515.052	56.3
515.297	53.65
515.542	55.05
515.787	56.86
516.033	60.05
516.278	60.43
516.523	60.59
516.768	60.75
517.013	58.89
517.258	59.35
517.503	58.51
517.748	58.75
517.993	59.39
518.238	59.27
518.483	59.43
518.728	59.65
518.973	57.63
519.218	58.36
519.463	60.01
519.708	61.41
519.953	59.86
520.198	59.86
520.443	63.09
520.688	67.33
520.933	67.88
521.177	67.78
521.422	64.58
521.667	67.33
521.912	68.7
522.157	66.64
522.401	71.26
522.646	73.34
522.891	74.91
523.135	76.52
523.38	76.35
523.625	76.06
523.869	79.8
524.114	81
524.358	78.95
524.603	81.25
524.848	79.03
525.092	78.55
525.337	81.17
525.581	83.61
525.826	85.72
526.07	84.83
526.315	85.79
526.559	86.12
526.803	84.76
527.048	88.08
527.292	88.89
527.537	89.5
527.781	90.7
528.025	88.09
528.269	86.94
528.514	87.29
528.758	86.72
529.002	89.31
529.247	92.31
529.491	92.16
529.735	96
529.979	93.89
530.223	94.7
530.467	93.16
530.712	91.82
530.956	91.07
531.2	90.35
531.444	86.89
531.688	89.04
531.932	88.59
532.176	89.8
532.42	91.3
532.664	93.74
532.908	91.23
533.152	89.95
533.396	89.88
533.64	90.48
533.884	89.51
534.128	88.55
534.371	90.11
534.615	91.23
534.859	89.75
535.103	88.97
535.347	87.82
535.59	89.61
535.834	87.48
536.078	88.05
536.322	89.55
536.565	91.5
536.809	88.59
537.053	90.22
537.296	87.75
537.54	87.05
537.784	86.54
538.027	87.46
538.271	85.82
538.514	83.38
538.758	84.25
539.001	82.46
539.245	81.4
539.488	84.24
539.732	84.39
539.975	85.51
540.219	86.31
540.462	88.28
540.706	90.09
540.949	89.5
541.192	90.34
541.436	94.26
541.679	98.59
541.922	97.62
542.166	92.9
542.409	93.06
542.652	93.89
542.895	95.85
543.139	95.28
543.382	99.32
543.625	99.33
543.868	99.13
544.111	98.24
544.354	96.89
544.598	95.57
544.841	97.23
545.084	96.93
545.327	96.45
545.57	97.37
545.813	98.83
546.056	99.88
546.299	99.17
546.542	101.27
546.785	103.43
547.028	103.31
547.271	102.02
547.514	100.23
547.756	97.11
547.999	95.7
548.242	95.78
548.485	94.82
548.728	93.14
548.971	88.75
549.213	88.49
549.456	88.33
549.699	88.4
549.942	88.78
550.184	88.47
550.427	87.28
550.67	88.11
550.912	83.35
551.155	83.81
551.398	83.82
551.64	82.57
551.883	82.46
552.125	82.3
552.368	80.48
552.61	78.23
552.853	79.71
553.095	77.38
553.338	77.53
553.58	77.62
553.823	77.08
554.065	81.32
554.308	76.09
554.55	73.11
554.792	70.95
555.035	69.38
555.277	69.18
555.519	70.49
555.762	68.9
556.004	67.85
556.246	64.76
556.488	66.07
556.731	62.36
556.973	63.59
557.215	62.75
557.457	63.67
557.699	66.27
557.941	64.01
558.183	62.46
558.426	65.05
558.668	60.94
558.91	61.58
559.152	59.55
559.394	58
559.636	59.58
559.878	61.78
560.12	62.45
560.362	63.23
560.604	64.36
560.845	62.97
561.087	62.13
561.329	62.98
561.571	59.1
561.813	60.86
562.055	61.13
562.297	61.86
562.538	63.52
562.78	65.53
563.022	63.43
563.264	64.19
563.505	64.96
563.747	66.87
563.989	64.29
564.23	65.29
564.472	63.76
564.714	65.52
564.955	65.69
565.197	60.3
565.438	62.96
565.68	66.13
565.921	63.35
566.163	65.78
566.404	64.49
566.646	68.7
566.887	72.33
567.129	71.76
567.37	70.33
567.612	72
567.853	69.33
568.094	70.95
568.336	71.74
568.577	71.67
568.818	73.25
569.06	71.19
569.301	69.32
569.542	70.21
569.783	71.61
570.025	71.58
570.266	72.67
570.507	73.78
570.748	73.41
570.989	74.35
571.23	77.66
571.472	78.35
571.713	76.78
571.954	77.91
572.195	77.5
572.436	78.27
572.677	82.8
572.918	83.6
573.159	81.06
573.4	79.49
573.641	78.55
573.882	78.17
574.123	73.97
574.364	68.49
574.604	70.45
574.845	67.52
575.086	66.83
575.327	66.94
575.568	65.83
575.809	64.82
576.049	64.26
576.29	61.64
576.531	65.44
576.771	68.81
577.012	70.33
577.253	70.49
577.494	69.47
577.734	67.61
577.975	68.16
578.215	68.57
578.456	66.89
578.697	65.48
578.937	67.26
579.178	67.69
579.418	66.89
579.659	66.65
579.899	63.49
580.14	61.15
580.38	59.17
580.62	59.43
580.861	64.5
581.101	64.38
581.342	63.67
581.582	61.68
581.822	64.33
582.063	61.19
582.303	63.31
582.543	63.01
582.783	63.79
583.024	65.18
583.264	67.96
583.504	67.02
583.744	69.24
583.984	68.36
584.224	68.63
584.465	65.74
584.705	66.63
584.945	68.19
585.185	68.47
585.425	68.42
585.665	67.59
585.905	66.48
586.145	66.23
586.385	65.39
586.625	67.78
586.865	67
587.105	66.38
587.345	68.08
587.585	68.58
587.824	67.67
588.064	67.84
588.304	64.82
588.544	66.6
588.784	66.01
589.024	68.33
589.263	68.51
589.503	68.03
589.743	70.59
589.982	69.47
590.222	70.65
590.462	69.26
590.701	66.99
590.941	68.5
591.181	66.7
591.42	65.94
591.66	67.92
591.899	71.93
592.139	70.12
592.378	69.7
592.618	68.64
592.857	68.65
593.097	67.93
593.336	68.28
593.576	67.29
593.815	68.32
594.055	66.09
594.294	65.74
594.533	65.27
594.773	63.9
595.012	65.03
595.251	66.27
595.491	68.63
595.73	70.48
595.969	70.34
596.208	72.22
596.447	76.46
596.687	76.55
596.926	76.94
597.165	72.54
597.404	74.55
597.643	71.83
597.882	69.23
598.121	70.15
598.36	71.49
598.599	72.91
598.838	72.64
599.077	68.05
599.316	68.47
599.555	68.73
599.794	70.36
600.033	72.99
600.272	73.23
600.511	72.89
600.75	74.92
600.989	76.74
601.228	74.54
601.466	75.84
601.705	76.7
601.944	77.58
602.183	81.01
602.422	79.8
602.66	79.43
602.899	76.83
603.138	76.29
603.376	74.44
603.615	73.02
603.854	71.65
604.092	70.62
604.331	72.64
604.569	74.4
604.808	73.96
605.047	75.99
605.285	77.35
605.524	75.89
605.762	73.53
606	74.64
606.239	75.58
606.477	76.87
606.716	71.9
606.954	70.86
607.193	67.82
607.431	63.33
607.669	62.28
607.908	61.28
608.146	62.49
608.384	61.43
608.622	61.92
608.861	62.41
609.099	60.66
609.337	59.19
609.575	56.58
609.813	57.26
610.052	57.41
610.29	54.07
610.528	52.11
610.766	52.18
611.004	53.39
611.242	49.88
611.48	50.54
611.718	46.66
611.956	48.25
612.194	46.44
612.432	46.42
612.67	45.5
612.908	47.36
613.146	45.55
613.384	44
613.621	41.48
613.859	41.34
614.097	41.73
614.335	41.8
614.573	41.9
614.811	45.05
615.048	44.91
615.286	46.39
615.524	45.31
615.761	41.85
615.999	41.67
616.237	40.36
616.474	43.21
616.712	45.6
616.95	44.84
617.187	44.07
617.425	43.97
617.662	45.56
617.9	43.98
618.137	41.56
618.375	39.66
618.612	38.92
618.85	40.48
619.087	42.97
619.325	40.98
619.562	40.75
619.799	38.91
620.037	39.02
620.274	37.77
620.511	39.5
620.749	37.5
620.986	37.59
621.223	35.75
621.461	36.31
621.698	37.58
621.935	36.72
622.172	32.96
622.409	34.06
622.647	33.87
622.884	31.13
623.121	35.11
623.358	33.47
623.595	33.09
623.832	32.19
624.069	29.19
624.306	30.2
624.543	31.15
624.78	31.71
625.017	31.69
625.254	33.87
625.491	36.43
625.728	40.34
625.965	42.27
626.202	42.04
626.438	40.98
626.675	40.13
626.912	42.08
627.149	43.36
627.386	42.86
627.622	41.12
627.859	41.64
628.096	40.97
628.333	41.75
628.569	41.81
628.806	42.87
629.043	42.54
629.279	45.3
629.516	48.59
629.752	44.91
629.989	45.6
630.225	45.31
630.462	44.67
630.699	45.56
630.935	45.81
631.171	43.44
631.408	43.58
631.644	41.85
631.881	39.76
632.117	38.21
632.354	39.59
632.59	38.97
632.826	39.83
633.063	38.01
633.299	38.36
633.535	35.55
633.771	35.07
634.008	38.21
634.244	37.12
634.48	35.1
634.716	37.44
634.953	38.65
635.189	37.53
635.425	39.12
635.661	41.8
635.897	41.56
636.133	40.76
636.369	39.78
636.605	34.93
636.841	33.7
637.077	36.03
637.313	34.85
637.549	34.7
637.785	34.56
638.021	34.46
638.257	32.83
638.493	36.01
638.729	34.22
638.965	36.81
639.2	37.4
639.436	36.48
639.672	35.35
639.908	32.82
640.144	36.62
640.379	38.29
640.615	35.46
640.851	37.39
641.086	38.96
641.322	36.54
641.558	36.89
641.793	38.35
642.029	35.89
642.264	32.9
642.5	33.68
642.736	30.78
642.971	28.89
643.207	26.87
643.442	25.41
643.678	24.94
643.913	27.28
644.148	26.19
644.384	27.5
644.619	27.39
644.855	29.38
645.09	29.64
645.325	29.81
645.561	30.97
645.796	27.77
646.031	31.85
646.266	29.78
646.502	30.4
646.737	33.1
646.972	33.4
647.207	34.41
647.442	30.54
647.678	27.59
647.913	30.57
648.148	31.21
648.383	30.4
648.618	30.59
648.853	30.66
649.088	31.89
649.323	34.19
649.558	37.09
649.793	37.45
650.028	38.64
650.263	36.27
650.498	39.26
650.733	38.36
650.968	37.65
651.202	39.63
651.437	38.08
651.672	35.02
651.907	34.43
652.142	34.65
652.376	34.24
652.611	34.8
652.846	35.58
653.081	36.31
653.315	34.46
653.55	34.07
653.785	32.98
654.019	33.94
654.254	32.87
654.488	33.8
654.723	30.29
654.958	28.71
655.192	27.81
655.427	24.2
655.661	24.37
655.896	27.05
656.13	29.96
656.364	26.18
656.599	23.32
656.833	26.09
657.068	28.08
657.302	28.53
657.536	27.79
657.771	28.63
658.005	30.52
658.239	31.78
658.474	28.58
658.708	29.51
658.942	29.46
659.176	28.15
659.41	25.25
659.645	25.45
659.879	25.72
660.113	22.27
660.347	22.08
660.581	19.64
660.815	20.17
661.049	19.15
661.283	15.42
661.517	13.64
661.751	13.46
661.985	12.94
662.219	13.65
662.453	11.11
662.687	12.59
662.921	10.16
663.155	8.11
663.389	1.02
663.622	0.2
663.856	2.49
664.09	-0.97
664.324	-2.86
664.558	-3.13
664.791	-3.88
665.025	-5.37
665.259	-5.93
665.492	-6.73
665.726	-3.71
665.96	-3.23
666.193	-4.48
666.427	-2.54
666.661	-3.05
666.894	-5.51
667.128	-6.71
667.361	-4.92
667.595	-5.14
667.828	-4.41
668.062	-5.14
668.295	-5.92
668.529	-4.75
668.762	-3.97
668.995	-5.97
669.229	-2.02
669.462	-0.92
669.695	0.92
669.929	-1.37
670.162	-1.08
670.395	-1.81
670.629	-0.21
670.862	2.42
671.095	-0.39
671.328	-0.08
671.561	-3.28
671.795	-3.29
672.028	-2.26
672.261	-1.11
672.494	1.17
672.727	-0.33
672.96	0.03
673.193	-0.78
673.426	4.45
673.659	3.47
673.892	3.89
674.125	3.15
674.358	3.07
674.591	1.33
674.824	0.71
675.057	0.52
675.29	-0.63
675.523	1.96
675.755	0.76
675.988	1.53
676.221	4.65
676.454	2.38
676.687	2.41
676.919	1.42
677.152	3.47
677.385	4.13
677.617	3.49
677.85	4.68
678.083	2.68
678.315	3.8
678.548	1.9
678.78	0.92
679.013	1.38
679.246	2.35
679.478	3.64
679.711	0.42
679.943	1.88
680.175	-0.49
680.408	3.65
680.64	-1.12
680.873	-0.08
681.105	0.74
681.338	3.54
681.57	2.63
681.802	5.15
682.034	4.23
682.267	7.68
682.499	9.23
682.731	6.69
682.964	6.91
683.196	4.83
683.428	3.08
683.66	1.66
683.892	4.5
684.124	6.8
684.356	9.65
684.589	9.51
684.821	8.68
685.053	8.77
685.285	8.7
685.517	11.11
685.749	11.89
685.981	16.04
686.213	16.4
686.445	15.92
686.676	11.86
686.908	13.33
687.14	12.17
687.372	13.05
687.604	9.67
687.836	11.08
688.068	10.14
688.299	10.46
688.531	8.5
688.763	12.32
688.995	10.24
689.226	14.68
689.458	11.82
689.69	9.76
689.921	7.19
690.153	7.12
690.384	9.61
690.616	9.71
690.848	11.7
691.079	9.56
691.311	5.38
691.542	2.07
691.774	1.01
692.005	4.46
692.237	5.66
692.468	4.75
692.699	3.28
692.931	3.74
693.162	-0.03
693.393	-1.05
693.625	-1.92
693.856	-0.27
694.087	0.72
694.319	2.75
694.55	2.04
694.781	0.58
695.012	-0.42
695.243	-2.26
695.475	-2.4
695.706	-1.53
695.937	-3.52
696.168	-3.35
696.399	-7.22
696.63	-7.25
696.861	-6.56
697.092	0.43
697.323	3.05
697.554	2.55
697.785	2.4
698.016	3
698.247	0.54
698.478	3.99
698.709	5.09
698.94	7.13
699.171	5.65
699.401	2.43
699.632	4.36
699.863	1.98
700.094	0.48
700.325	5.2
700.555	5.45
700.786	7.53
701.017	7.27
701.247	6.26
701.478	5.71
701.709	6.42
701.939	6.82
702.17	10.42
702.401	14.54
702.631	13.87
702.862	11.81
703.092	8.94
703.323	11.53
703.553	14.36
703.784	14.28
704.014	15.07
704.244	10.16
704.475	8.78
704.705	9.42
704.936	9.86
705.166	8.82
705.396	10.4
705.627	9.48
705.857	10.31
706.087	10.37
706.317	8.69
706.548	8.5
706.778	8.52
707.008	9.41
707.238	11.03
707.468	6.56
707.698	6.12
707.928	4.55
708.158	3.21
708.389	2.01
708.619	0.92
708.849	0.19
709.079	-0.35
709.309	-4.53
709.539	-8.16
709.768	-7.67
709.998	-4.17
710.228	-2.42
710.458	-3.35
710.688	-6.45
710.918	-6.17
711.148	-8.25
711.378	-7.99
711.607	-8.66
711.837	-7.34
712.067	-7.66
712.297	-8.29
712.526	-8.07
712.756	-6.85
712.986	-10.69
713.215	-13.4
713.445	-12.31
713.674	-12.06
713.904	-12.18
714.134	-9.37
714.363	-9.78
714.593	-9.74
714.822	-10.06
715.052	-10.87
715.281	-9.19
715.511	-10.51
715.74	-10.5
715.969	-12.27
716.199	-11.83
716.428	-10.84
716.657	-9.8
716.887	-8.16
717.116	-11.02
717.345	-9.24
717.575	-10.15
717.804	-8.63
718.033	-9.88
718.262	-9.27
718.492	-8.47
718.721	-8.38
718.95	-11.03
719.179	-12.94
719.408	-11.68
719.637	-14.61
719.866	-16.35
720.095	-14.07
720.324	-14.23
720.553	-18.29
720.782	-18.72
721.011	-19.64
721.24	-23
721.469	-23.09
721.698	-21.46
721.927	-21.97
722.156	-23.87
722.385	-24.93
722.613	-20.96
722.842	-20.25
723.071	-17.38
723.3	-15.74
723.529	-15.99
723.757	-15.94
723.986	-18.46
724.215	-19.71
724.443	-19.24
724.672	-16.59
724.901	-16.67
725.129	-15.54
725.358	-12.58
725.586	-14.63
725.815	-14.9
726.043	-14.86
726.272	-15.84
726.5	-16.8
726.729	-14.71
726.957	-17.62
727.186	-19.01
727.414	-18.47
727.642	-16.05
727.871	-14.04
728.099	-14.27
728.327	-13.89
728.556	-12.59
728.784	-11.83
729.012	-13.45
729.241	-9.91
729.469	-10.77
729.697	-14.26
729.925	-13.76
730.153	-15.32
730.381	-15.77
730.61	-14.82
730.838	-17.76
731.066	-16.49
731.294	-15.84
731.522	-19.07
731.75	-22.78
731.978	-24.02
732.206	-24.51
732.434	-25.79
732.662	-24.48
732.89	-25.59
733.118	-25.42
733.346	-25.62
733.573	-25.14
733.801	-25.46
734.029	-18.56
734.257	-18.14
734.485	-13.11
734.712	-10.9
734.94	-13.09
735.168	-9.46
735.396	-9.32
735.623	-10.69
735.851	-10.31
736.078	-6.83
736.306	-5.7
736.534	-5.66
736.761	-4.7
736.989	-7.68
737.216	-8.14
737.444	-9.72
737.671	-9.05
737.899	-3.93
738.126	-4.77
738.354	-3.56
738.581	-2.89
738.809	-1.09
739.036	-2.24
739.263	-1.52
739.491	-3.48
739.718	-2.92
739.945	1.41
740.173	2.84
740.4	4.47
740.627	3.59
740.854	3.72
741.081	0.86
741.309	0.76
741.536	-4.15
741.763	-5.21
741.99	-3.14
742.217	-4.17
742.444	-3.89
742.671	-1.98
742.898	-2.53
743.125	-6.39
743.352	-9.46
743.579	-9.81
743.806	-10.39
744.033	-7.2
744.26	-5.95
744.487	-6.95
744.714	-7.44
744.941	-8.43
745.167	-4.49
745.394	-6.19
745.621	-5.93
745.848	-6.78
746.075	-4.61
746.301	-1.92
746.528	2.72
746.755	1.48
746.981	0.98
747.208	2.68
747.435	4.9
747.661	5.47
747.888	6.1
748.114	4.04
748.341	5.47
748.567	6.52
748.794	3.83
749.02	1.58
749.247	-1.37
749.473	-2.58
749.7	-3.88
749.926	-4.06
750.152	0.64
750.379	1.57
750.605	3.55
750.831	3.32
751.058	1.02
751.284	-0.99
751.51	2.31
751.737	3.59
751.963	1.94
752.189	0.27
752.415	0.1
752.641	-1.04
752.867	-1.49
753.094	-3.45
753.32	-5.95
753.546	-9.33
753.772	-6.65
753.998	-9.18
754.224	-10.18
754.45	-11.83
754.676	-12.68
754.902	-14.14
755.128	-14.72
755.354	-15.19
755.579	-14.02
755.805	-10.44
756.031	-11.42
756.257	-12.42
756.483	-12.84
756.709	-13.82
756.934	-14.24
757.16	-16.89
757.386	-16.48
757.612	-19.31
757.837	-20.18
758.063	-16.42
758.289	-12.56
758.514	-14.32
758.74	-17.05
758.965	-18.31
759.191	-17.7
759.416	-15.81
759.642	-13.9
759.868	-14.74
760.093	-12.08
760.318	-13.37
760.544	-12.78
760.769	-14.81
760.995	-16.24
761.22	-16.83
761.445	-14.72
761.671	-12.19
761.896	-9.24
762.121	-9.81
762.347	-10.69
762.572	-13.38
762.797	-13.79
763.022	-12.93
763.248	-7.34
763.473	-6.21
763.698	-6.98
763.923	-5.88
764.148	-5.26
764.373	-6.78
764.598	-5.33
764.823	-2.6
765.048	-6.72
765.273	-11.25
765.498	-12.27
765.723	-12.24
765.948	-10.45
766.173	-11.63
766.398	-11.16
766.623	-13.2
766.848	-12.16
767.073	-13.72
767.298	-13.43
767.522	-13.68
767.747	-12.5
767.972	-11.61
768.197	-12.38
768.421	-15.8
768.646	-18.86
768.871	-21.93
769.095	-19.32
769.32	-18.38
769.545	-17.38
769.769	-16.54
769.994	-15.9
770.218	-18.09
770.443	-16.94
770.667	-15.57
770.892	-15.72
771.116	-17.55
771.341	-16.17
771.565	-16.13
771.79	-16.52
772.014	-16.98
772.238	-16.71
772.463	-14.43
772.687	-14.28
772.911	-16.04
773.136	-18.3
773.36	-18.3
773.584	-16.49
773.808	-18.58
774.033	-18.72
774.257	-17.6
774.481	-17.52
774.705	-18.37
774.929	-18.01
775.153	-18.44
775.377	-15.02
775.602	-15.6
775.826	-13.66
776.05	-11.47
776.274	-11.5
776.498	-12.9
776.722	-15.21
776.945	-12.66
777.169	-13.49
777.393	-15.24
777.617	-16.5
777.841	-15.5
778.065	-14.43
778.289	-14.39
778.512	-15.19
778.736	-15.64
778.96	-15.37
779.184	-13.79
779.407	-15.27
779.631	-14.86
779.855	-15.57
780.078	-13.63
780.302	-13.98
780.526	-16.9
780.749	-16.81
780.973	-15.21
781.196	-14.6
781.42	-17.22
781.643	-17.08
781.867	-16.29
782.09	-17.51
782.314	-18.81
782.537	-17.82
782.76	-18.35
782.984	-19.25
783.207	-20.36
783.431	-18.73
783.654	-18.78
783.877	-21.68
784.1	-22.87
784.324	-23.48
784.547	-23.78
784.77	-27.23
784.993	-28.57
785.216	-29.1
785.44	-28.01
785.663	-30.06
785.886	-27.27
786.109	-27.52
786.332	-26.34
786.555	-25.05
786.778	-22.44
787.001	-22.89
787.224	-22.61
787.447	-21.77
787.67	-19.03
787.893	-18.77
788.116	-19.44
788.339	-17.23
788.561	-17.67
788.784	-21.26
789.007	-22.58
789.23	-23.56
789.453	-24.02
789.675	-25.02
789.898	-26.54
790.121	-27.39
790.344	-27.84
790.566	-26.78
790.789	-25.28
791.012	-24.22
791.234	-20.15
791.457	-16.75
791.679	-15.72
791.902	-14.09
792.124	-14.68
792.347	-15.64
792.569	-15.43
792.792	-18.46
793.014	-15.02
793.237	-13.89
793.459	-15.33
793.681	-15.02
793.904	-15.45
794.126	-16.94
794.348	-15.64
794.571	-15.08
794.793	-16.28
795.015	-14.37
795.237	-15.18
795.46	-14.52
795.682	-12.95
795.904	-9.78
796.126	-11.42
796.348	-12.37
796.57	-9.57
796.792	-8.8
797.014	-4.46
797.237	-2.7
797.459	-2.2
797.681	-2.61
797.903	-4.54
798.124	-6.04
798.346	6.29
798.568	7.74
798.79	11.29
799.012	13.04
799.234	13.54
799.456	15.37
799.678	17.37
799.899	13.59
800.121	10.04
800.343	10.21
800.565	9.48
800.786	10.43
801.008	12.92
801.23	12.41
801.451	12.5
801.673	11.15
801.895	9.03
802.116	11.69
802.338	12.13
802.559	12.5
802.781	11.59
803.002	13.68
803.224	16.62
803.445	14.14
803.667	14.73
803.888	12.62
804.109	11.88
804.331	12.77
804.552	13.91
804.773	15.44
804.995	13.67
805.216	-1.73
805.437	-4.07
805.658	-9.77
805.88	-11.43
806.101	-11.03
806.322	-10.22
806.543	-11.03
806.764	-12.08
806.985	-9.98
807.207	-8.69
807.428	-7.15
807.649	-11.01
807.87	-14.42
808.091	-13.21
808.312	-12.76
808.533	-8.88
808.754	-6.18
808.975	-9.14
809.195	-7.09
809.416	-7.55
809.637	-8.2
809.858	-9.05
810.079	-11.68
810.3	-9.9
810.52	-10.5
810.741	-13.3
810.962	-13.68
811.183	-15.91
811.403	-15.65
811.624	-16.12
811.845	-14.82
812.065	-12.75
812.286	-11.27
812.506	-9.62
812.727	-9.59
812.948	-9.14
813.168	-8.96
813.389	-9.36
813.609	-8.57
813.83	-9.25
814.05	-11.35
814.27	-12.31
814.491	-6.76
814.711	-7.5
814.931	-12.14
815.152	-12.32
815.372	-12.46
815.592	-14.81
815.813	-15.28
816.033	-16.73
816.253	-15.55
816.473	-16.86
816.694	-15.55
816.914	-13.87
817.134	-14.15
817.354	-16.22
817.574	-14.73
817.794	-15.64
818.014	-16.37
818.234	-18.05
818.454	-18.33
818.674	-20.03
818.894	-22.3
819.114	-20.52
819.334	-20.12
819.554	-18.11
819.774	-16.09
819.994	-18.55
820.214	-20.14
820.433	-19.4
820.653	-19.76
820.873	-16.95
821.093	-16.96
821.312	-19.02
821.532	-15.67
821.752	-11.21
821.972	-13.58
822.191	-13.38
822.411	-13.14
822.63	-12.14
822.85	-13.25
823.07	-14.59
823.289	-12.22
823.509	-13.38
823.728	-11.5
823.948	-14.37
824.167	-15.23
824.387	-15.75
824.606	-13.23
824.825	-13.91
825.045	-13.54
825.264	-14.35
825.483	-13.6
825.703	-12.96
825.922	-16.39
826.141	-15.85
826.361	-17.3
826.58	-21
826.799	-21.52
827.018	-20.27
827.237	-19.73
827.456	-17.78
827.676	-17.87
827.895	-18.06
828.114	-17.46
828.333	-17.46
828.552	-17.83
828.771	-17.12
828.99	-20.75
829.209	-21
829.428	-18.73
829.647	-19.41
829.866	-19.26
830.084	-19.75
830.303	-20.23
830.522	-21.06
830.741	-19.36
830.96	-17.94
831.179	-17.57
831.397	-19.51
831.616	-18.51
831.835	-18.01
832.053	-16.64
832.272	-15.1
832.491	-15.31
832.709	-15.34
832.928	-15.11
833.147	-14.74
833.365	-14.14
833.584	-10.82
833.802	-8.21
834.021	-8.52
834.239	-7.3
834.458	-7.78
834.676	-10.83
834.894	-12.64
835.113	-14.87
835.331	-16.44
835.55	-16.68
835.768	-15.16
835.986	-13.69
836.204	-16.32
836.423	-13.71
836.641	-14.65
836.859	-16.71
837.077	-16.26
837.296	-16.27
837.514	-18.23
837.732	-18.62
837.95	-18.5
838.168	-17.33
838.386	-16.44
838.604	-15.61
838.822	-15.67
839.04	-17.7
839.258	-14.85
839.476	-12.15
839.694	-12.12
839.912	-12.42
840.13	-12.32
840.348	-10.88
840.566	-13.78
840.783	-12.98
841.001	-15.52
841.219	-15.31
841.437	-14.06
841.655	-11.86
841.872	-11.25
842.09	-10.99
842.308	-10.44
842.525	-10.37
842.743	-10.17
842.961	-11.36
843.178	-14.37
843.396	-10.86
843.613	-10.83
843.831	-10.29
844.048	-10.79
844.266	-10.16
844.483	-11.1
844.701	-13.01
844.918	-13.23
845.136	-15.19
845.353	-16.92
845.57	-15.65
845.788	-11.61
846.005	-14.21
846.222	-16.65
846.439	-16.29
846.657	-16.67
846.874	-16.19
847.091	-17.88
847.308	-15.94
847.526	-17.44
847.743	-18.16
847.96	-19.95
848.177	-18.96
848.394	-20.18
848.611	-20.03
848.828	-21.15
849.045	-22.12
849.262	-22.67
849.479	-23.74
849.696	-24.24
849.913	-25.8
850.13	-29.61
850.347	-26.19
850.564	-25.87
850.78	-28.16
850.997	-30.08
851.214	-29.12
851.431	-27.68
851.647	-29.96
851.864	-28.89
852.081	-26.83
852.298	-30.98
852.514	-33.58
852.731	-32.83
852.948	-30.56
853.164	-29.94
853.381	-29.81
853.597	-29.97
853.814	-32.27
854.03	-34.27
854.247	-31.4
854.463	-29.83
854.68	-29.17
854.896	-28.8
855.113	-28.93
855.329	-27.76
855.545	-25.08
855.762	-25.5
855.978	-27.34
856.194	-28.75
856.411	-24.39
856.627	-20.82
856.843	-19.27
857.059	-18
857.275	-19.11
857.492	-16.7
857.708	-11.66
857.924	-10.43
858.14	-8.14
858.356	-8.76
858.572	-8.77
858.788	-9.4
859.004	-6.73
859.22	-7.98
859.436	-8.21
859.652	-8.59
859.868	-10.76
860.084	-11.11
860.3	-11.55
860.516	-11.49
860.731	-12.53
860.947	-15.56
861.163	-14.25
861.379	-14.17
861.595	-12.35
861.81	-11.34
862.026	-11.94
862.242	-11.38
862.457	-10.79
862.673	-9.11
862.889	-8.89
863.104	-10.59
863.32	-11.01
863.535	-10.15
863.751	-13.12
863.966	-11.07
864.182	-9.96
864.397	-11.33
864.613	-13.41
864.828	-15.38
865.044	-13.42
865.259	-11.35
865.474	-13.85
865.69	-12.21
865.905	-11.26
866.12	-12.87
866.336	-13.61
866.551	-12.31
866.766	-11.91
866.981	-12.06
867.196	-12.5
867.412	-11.63
867.627	-10.22
867.842	-12.49
868.057	-13.54
868.272	-14.96
868.487	-15.95
868.702	-18.37
868.917	-19.41
869.132	-17.99
869.347	-18.16
869.562	-19.74
869.777	-19.84
869.992	-21.63
870.207	-22.26
870.422	-23.56
870.636	-25.24
870.851	-26.62
871.066	-29.42
871.281	-29.72
871.495	-31.24
871.71	-29.38
871.925	-32.51
872.14	-32.16
872.354	-36.59
872.569	-37.74
872.783	-35.48
872.998	-36.39
873.213	-36.97
873.427	-34.08
873.642	-33.16
873.856	-32.71
874.071	-31.9
874.285	-32.78
874.5	-33.13
874.714	-33.94
874.928	-35.63
875.143	-36.18
875.357	-35.79
875.571	-37.21
875.786	-38.2
876	-34.9
876.214	-31.19
876.429	-32.79
876.643	-31.04
876.857	-29.93
877.071	-28.49
877.285	-30.48
877.499	-32.59
877.714	-29.72
877.928	-26.3
878.142	-27.61
878.356	-29.72
878.57	-27.69
878.784	-26.01
878.998	-24.91
879.212	-22.44
879.426	-24.41
879.639	-21.63
879.853	-22.24
880.067	-23.99
880.281	-26.09
880.495	-24.41
880.709	-21.88
880.922	-22.66
881.136	-21
881.35	-19.21
881.564	-18.45
881.777	-20.85
881.991	-19.53
882.205	-16.52
882.418	-15.02
882.632	-17.63
882.845	-20.57
883.059	-19.51
883.273	-20.42
883.486	-21.81
883.7	-19.55
883.913	-18.58
884.126	-17.91
884.34	-21.37
884.553	-24.36
884.767	-19.23
884.98	-19.56
885.193	-21.26
885.407	-22.06
885.62	-19.9
885.833	-19.79
886.046	-18.22
886.26	-20.59
886.473	-21.71
886.686	-22.65
886.899	-19.17
887.112	-20.15
887.326	-23.95
887.539	-22.61
887.752	-21.36
887.965	-22.99
888.178	-22.18
888.391	-19.85
888.604	-20.97
888.817	-23.17
889.03	-21.95
889.243	-23.62
889.455	-25.1
889.668	-26.4
889.881	-23.83
890.094	-24.33
890.307	-27.24
890.52	-25.97
890.732	-25.24
890.945	-24.94
891.158	-24.29
891.37	-27.91
891.583	-27.24
891.796	-25.6
892.008	-27.69
892.221	-27.45
892.434	-31.7
892.646	-32.1
892.859	-33.16
893.071	-29.89
893.284	-28.92
893.496	-29.91
893.709	-29.51
893.921	-27.54
894.133	-28.05
894.346	-30.16
894.558	-30.42
894.771	-31.24
894.983	-29.9
895.195	-28.75
895.407	-27.89
895.62	-32.26
895.832	-30.27
896.044	-26.43
896.256	-25.6
896.468	-26.39
896.681	-24.4
896.893	-23.25
897.105	-23.68
897.317	-24.19
897.529	-22
897.741	-20.85
897.953	-17.3
898.165	-19.68
898.377	-21.69
898.589	-20.19
898.801	-21.41
899.013	-18.6
899.224	-17.09
899.436	-15.04
899.648	-17.4
899.86	-18.29
900.072	-15.37
900.283	-14.44
900.495	-15.2
900.707	-14.26
900.919	-16.82
901.13	-15.04
901.342	-15.39
901.554	-16.26
901.765	-15.55
901.977	-17.63
902.188	-16.92
902.4	-18.36
902.611	-20.52
902.823	-22.18
903.034	-24.93
903.246	-27.35
903.457	-27.49
903.669	-28.24
903.88	-28.23
904.091	-27.89
904.303	-26.05
904.514	-28.06
904.725	-25.43
904.936	-23.35
905.148	-22.41
905.359	-20.27
905.57	-21.19
905.781	-21.84
905.992	-22.03
906.204	-20.6
906.415	-19.88
906.626	-23.11
906.837	-21.04
907.048	-20.03
907.259	-20.94
907.47	-22.18
907.681	-23.11
907.892	-20.29
908.103	-22.52
908.314	-24.5
908.525	-21.15
908.735	-19.86
908.946	-20.33
909.157	-20.73
909.368	-17.83
909.579	-16.78
909.789	-18.57
910	-20.13
910.211	-17.38
910.421	-17.37
910.632	-16.98
910.843	-21.78
911.053	-18.23
911.264	-15.62
911.475	-17.17
911.685	-16.97
911.896	-17.31
912.106	-16.41
912.317	-19.43
912.527	-18.12
912.737	-18.6
912.948	-18
913.158	-18.65
913.369	-21.91
913.579	-20.51
913.789	-20.25
914	-15.48
914.21	-15.61
914.42	-17.3
914.63	-15.84
914.841	-13.79
915.051	-13.61
915.261	-15.23
915.471	-13.3
915.681	-12.14
915.891	-12.61
916.101	-12.62
916.311	-11.95
916.521	-11.32
916.731	-12.34
916.941	-10.42
917.151	-12.06
917.361	-8.66
917.571	-12.23
917.781	-14.49
917.991	-17.24
918.201	-17.48
918.411	-20.94
918.621	-21.63
918.83	-20.11
919.04	-22.04
919.25	-19.49
919.46	-18.13
919.669	-20.33
919.879	-19.73
920.089	-21.92
920.298	-22.73
920.508	-22.93
920.717	-22.24
920.927	-22.74
921.136	-22.4
921.346	-25.02
921.555	-28.79
921.765	-26.26
921.974	-28
922.184	-31.78
922.393	-32.41
922.603	-34.56
922.812	-32.3
923.021	-32.74
923.23	-33.69
923.44	-36.2
923.649	-35.52
923.858	-36.01
924.067	-36.8
924.277	-37.73
924.486	-34.49
924.695	-35.79
924.904	-33.15
925.113	-32.91
925.322	-31.96
925.531	-30.92
925.74	-34.54
925.949	-37.07
926.158	-34.46
926.367	-34.52
926.576	-32.79
926.785	-32.57
926.994	-33.52
927.203	-32.51
927.412	-32.66
927.621	-34.17
927.83	-29.94
928.038	-28.61
928.247	-30.39
928.456	-29.81
928.665	-27.51
928.873	-25.62
929.082	-22.25
929.291	-20.9
929.499	-19.16
929.708	-20.86
929.916	-20.53
930.125	-21.23
930.333	-23.1
930.542	-19.55
930.75	-17.66
930.959	-17.26
931.167	-16.75
931.376	-17.76
931.584	-16.13
931.793	-15.15
932.001	-17.16
932.209	-17.49
932.418	-18.74
932.626	-20.57
932.834	-23.15
933.042	-25.92
933.251	-25.83
933.459	-25.45
933.667	-25.4
933.875	-26.25
934.083	-23.63
934.291	-24.9
934.499	-23.67
934.707	-24.84
934.915	-24.34
935.123	-21.69
935.331	-22.92
935.539	-25.02
935.747	-28.04
935.955	-27.54
936.163	-25.77
936.371	-25.28
936.579	-24.09
936.787	-23.9
936.995	-26.64
937.202	-29.07
937.41	-29.97
937.618	-30.83
937.826	-30.34
938.033	-34.62
938.241	-37.03
938.449	-33.31
938.656	-31.73
938.864	-31.79
939.071	-30.78
939.279	-26.03
939.486	-23.69
939.694	-25.14
939.901	-26.14
940.109	-26.25
940.316	-25.48
940.524	-26.19
940.731	-27.66
940.939	-27.03
941.146	-25.83
941.353	-26.91
941.561	-27.62
941.768	-28.93
941.975	-27.4
942.182	-26.44
942.39	-27.67
942.597	-24.46
942.804	-23.85
943.011	-24.63
943.218	-22.7
943.425	-23.33
943.632	-21.9
943.839	-21.95
944.046	-23.04
944.253	-23
944.46	-22.19
944.667	-18.57
944.874	-19.95
945.081	-18.28
945.288	-17.47
945.495	-14.95
945.702	-16.88
945.909	-18.41
946.115	-16.14
946.322	-17.12
946.529	-19.68
946.736	-20.04
946.942	-19.38
947.149	-19.91
947.356	-20.99
947.562	-23.91
947.769	-23.83
947.976	-25.76
948.182	-24.09
948.389	-25.44
948.595	-25.62
948.802	-25.76
949.008	-29.09
949.215	-27.84
949.421	-29.2
949.628	-30.7
949.834	-30.62
950.04	-31.63
950.247	-27.47
950.453	-24.86
950.659	-25.53
950.865	-23.94
951.072	-28.83
951.278	-26.64
951.484	-27.71
951.69	-30.1
951.896	-31.7
952.103	-32.92
952.309	-32.49
952.515	-32.17
952.721	-31.22
952.927	-29.12
953.133	-29.66
953.339	-31.64
953.545	-31.35
953.751	-30.72
953.957	-26.55
954.163	-27.1
954.369	-25.73
954.574	-27.6
954.78	-27.31
954.986	-25.87
955.192	-23.03
955.398	-23.72
955.603	-27.27
955.809	-25.27
956.015	-25.2
956.22	-24.73
956.426	-23.68
956.632	-27.06
956.837	-26.6
957.043	-26.25
957.248	-24.79
957.454	-23.78
957.66	-26.34
957.865	-27.39
958.07	-24.24
958.276	-25.89
958.481	-26.33
958.687	-27.4
958.892	-27.97
959.097	-27.68
959.303	-26.84
959.508	-27.25
959.713	-25.74
959.919	-26.76
960.124	-28.42
960.329	-27.43
960.534	-24.96
960.739	-24.03
960.945	-21.46
961.15	-21.9
961.355	-23.75
961.56	-27.83
961.765	-29.17
961.97	-29.02
962.175	-26.38
962.38	-27.94
962.585	-26.53
962.79	-28.03
962.995	-28.6
963.2	-30.72
963.404	-30.26
963.609	-33.77
963.814	-34.88
964.019	-36.39
964.224	-39.49
964.428	-38.37
964.633	-37.56
964.838	-35.05
965.042	-34.02
965.247	-36.04
965.452	-35.86
965.656	-35.06
965.861	-34.13
966.066	-35.41
966.27	-32.56
966.475	-29.11
966.679	-34.15
966.884	-33.49
967.088	-34.77
967.292	-35.11
967.497	-33.49
967.701	-34.62
967.906	-33.72
968.11	-30.2
968.314	-25.25
968.518	-26.77
968.723	-24.7
968.927	-24.53
969.131	-24.14
969.335	-22.24
969.539	-21.8
969.744	-20.28
969.948	-17.22
970.152	-14.63
970.356	-13.49
970.56	-10.66
970.764	-12.98
970.968	-10
971.172	-10.59
971.376	-10.35
971.58	-9.79
971.784	-8.04
971.988	-10.3
972.192	-7.14
972.395	-8.38
972.599	-10.72
972.803	-12.61
973.007	-9.53
973.21	-11.11
973.414	-12.12
973.618	-13.36
973.822	-14.8
974.025	-11.92
974.229	-11.43
974.432	-13.84
974.636	-15.97
974.84	-16.83
975.043	-16.37
975.247	-18.33
975.45	-18.74
975.654	-17.59
975.857	-16.04
976.06	-17.82
976.264	-19.32
976.467	-18.44
976.671	-18.92
976.874	-18.34
977.077	-19.2
977.28	-20.49
977.484	-22.41
977.687	-21.66
977.89	-18.92
978.093	-20.59
978.297	-19.75
978.5	-22.34
978.703	-21.34
978.906	-19.56
979.109	-18.12
979.312	-17.53
979.515	-18.22
979.718	-18.16
979.921	-17.9
980.124	-19.68
980.327	-20.62
980.53	-20.62
980.733	-17.79
980.936	-15.85
981.138	-16.65
981.341	-16.67
981.544	-15.48
981.747	-15.71
981.949	-18.07
982.152	-16.17
982.355	-16.17
982.558	-11.44
982.76	-13.85
982.963	-14.42
983.165	-14.73
983.368	-13.26
983.571	-14.27
983.773	-11.48
983.976	-12.38
984.178	-12.89
984.381	-13.31
984.583	-15.46
984.785	-15.11
984.988	-12.42
985.19	-12
985.392	-15.48
985.595	-17.74
985.797	-16
985.999	-14.09
986.202	-12.21
986.404	-11.56
986.606	-9.49
986.808	-10.88
987.01	-11.05
987.212	-12.99
987.415	-14.72
987.617	-15.16
987.819	-16.81
988.021	-14.91
988.223	-16.37
988.425	-17.66
988.627	-17.34
988.829	-23.35
989.031	-22.07
989.232	-22.37
989.434	-19.98
989.636	-19.96
989.838	-19.88
990.04	-18.65
990.242	-19.09
990.443	-20.75
990.645	-19.41
990.847	-16.31
991.048	-16.24
991.25	-18.66
991.452	-19.78
991.653	-20.47
991.855	-20.52
992.057	-22.02
992.258	-20.62
992.46	-20.93
992.661	-19.36
992.863	-20.44
993.064	-18.97
993.265	-21.21
993.467	-21.91
993.668	-18.73
993.87	-18.85
994.071	-18.52
994.272	-19.58
994.473	-18.71
994.675	-18.82
994.876	-18.4
995.077	-18.03
995.278	-16.17
995.48	-15.09
995.681	-18.11
995.882	-17.08
996.083	-17.83
996.284	-22.48
996.485	-23.08
996.686	-25.46
996.887	-25.83
997.088	-29.98
997.289	-32.29
997.49	-31.55
997.691	-30.68
997.892	-29.74
998.092	-25.16
998.293	-25.73
998.494	-28.24
998.695	-29.3
998.896	-27.49
999.096	-28.76
999.297	-28.67
999.498	-29.28
999.698	-31.98
999.899	-34.93
1000.1	-36.29
1000.3	-35.3
1000.501	-35.27
1000.701	-34.29
1000.902	-35.8
1001.102	-36.14
1001.303	-34.03
1001.503	-37.74
1001.704	-37.32
1001.904	-37.66
1002.105	-37.78
1002.305	-36.58
1002.505	-36.92
1002.706	-36.9
1002.906	-35.28
1003.106	-36.99
1003.306	-35.12
1003.507	-32.59
1003.707	-33.44
1003.907	-32.19
1004.107	-30.76
1004.307	-33.15
1004.507	-31.46
1004.707	-30.23
1004.907	-31.75
1005.107	-33.28
1005.308	-31.38
1005.507	-32.7
1005.707	-29.08
1005.907	-29.08
1006.107	-25.82
1006.307	-23.88
1006.507	-24.07
1006.707	-24.36
1006.907	-24.02
1007.106	-24.22
1007.306	-26.61
1007.506	-26.49
1007.706	-24.76
1007.905	-27.24
1008.105	-27.1
1008.305	-27.01
1008.504	-25.27
1008.704	-19.45
1008.903	-19.89
1009.103	-17.54
1009.303	-18.55
1009.502	-17.71
1009.702	-17.77
1009.901	-17.24
1010.1	-20.65
1010.3	-19.22
1010.499	-20.33
1010.699	-20.82
1010.898	-22.18
1011.097	-22.33
1011.296	-22.63
1011.496	-24.68
1011.695	-25.08
1011.894	-27.3
1012.093	-24.06
1012.293	-25.09
1012.492	-26.97
1012.691	-28.05
1012.89	-27.04
1013.089	-29.01
1013.288	-27.6
1013.487	-25.13
1013.686	-25.38
1013.885	-27.37
1014.084	-26.38
1014.283	-26.13
1014.482	-28.69
1014.681	-30.64
1014.88	-35.45
1015.078	-33.05
1015.277	-35.91
1015.476	-35.69
1015.675	-36.83
1015.873	-36.85
1016.072	-38.54
1016.271	-35.28
1016.47	-38.39
1016.668	-37.24
1016.867	-39.09
1017.065	-39.99
1017.264	-40.83
1017.463	-41.01
1017.661	-41.7
1017.86	-41.05
1018.058	-41.13
1018.256	-42.71
1018.455	-42.45
1018.653	-40.57
1018.852	-40.02
1019.05	-42.65
1019.248	-44.9
1019.447	-46.44
1019.645	-47.11
1019.843	-48.21
1020.041	-46.9
1020.24	-46.71
1020.438	-43.18
1020.636	-43.26
1020.834	-45.68
1021.032	-43.37
1021.23	-43.99
1021.428	-41.06
1021.626	-37.65
1021.824	-36.85
1022.022	-37.96
1022.22	-35.34
1022.418	-33.79
1022.616	-35.02
1022.814	-36.08
1023.012	-36.36
1023.21	-35.54
1023.408	-35.32
1023.606	-35.2
1023.803	-29.72
1024.001	-29.34
1024.199	-31.9
1024.397	-30.63
1024.594	-31.55
1024.792	-33.35
1024.99	-31.78
1025.187	-31.94
1025.385	-27.67
1025.582	-27.34
1025.78	-26.62
1025.977	-25.34
1026.175	-26.53
1026.372	-26.91
1026.57	-29.89
1026.767	-27.15
1026.965	-23.47
1027.162	-23.67
1027.359	-25.34
1027.557	-25.86
1027.754	-29.13
1027.951	-29.82
1028.148	-28.79
1028.346	-30.78
1028.543	-34.3
1028.74	-33.97
1028.937	-36.33
1029.134	-34.81
1029.331	-35.08
1029.528	-34.06
1029.725	-34.11
1029.923	-36.83
1030.12	-32.69
1030.317	-30.56
1030.513	-29.22
1030.71	-28.24
1030.907	-24.8
1031.104	-25.77
1031.301	-25.53
1031.498	-25.29
1031.695	-25.32
1031.892	-25.91
1032.088	-27.39
1032.285	-26.12
1032.482	-26.61
1032.678	-29.33
1032.875	-31.66
1033.072	-32.23
1033.268	-31.83
1033.465	-30.79
1033.662	-33.66
1033.858	-32.38
1034.055	-32.92
1034.251	-30
1034.448	-29.85
1034.644	-29.58
1034.84	-25.43
1035.037	-21.83
1035.233	-23.46
1035.43	-20.94
1035.626	-21.13
1035.822	-21.47
1036.019	-22.8
1036.215	-27.45
1036.411	-27.32
1036.607	-29.72
1036.803	-31.88
1037	-33.67
1037.196	-36.17
1037.392	-36.62
1037.588	-38.79
1037.784	-36.24
1037.98	-37.64
1038.176	-36.24
1038.372	-38.59
1038.568	-36.8
1038.764	-33.88
1038.96	-31.15
1039.156	-33.95
1039.352	-34.67
1039.547	-32.68
1039.743	-30.47
1039.939	-28.12
1040.135	-27.51
1040.331	-29.67
1040.526	-28.15
1040.722	-28.74
1040.918	-31.21
1041.113	-34.74
1041.309	-33.77
1041.505	-36.92
1041.7	-36.48
1041.896	-35.63
1042.091	-35.48
1042.287	-34.14
1042.482	-33.94
1042.678	-33.68
1042.873	-32.4
1043.069	-33.14
1043.264	-30.94
1043.459	-28.73
1043.655	-27.29
1043.85	-29.69
1044.045	-27.48
1044.24	-28.2
1044.436	-24.06
1044.631	-24.5
1044.826	-25.18
1045.021	-27.74
1045.216	-24.87
