Data from mesure_FLMT021711__27__49.txt Node

Date: Mon Nov 04 12:08:51 CET 2024
User: jordan.swietlicki
Spectrometer: FLMT02171
Trigger mode: 0
Integration Time (sec): 5.000000E-1
Scans to average: 30
Electric dark correction enabled: true
Nonlinearity correction enabled: false
Boxcar width: 30
XAxis mode: Wavelengths
Number of Pixels in Spectrum: 3648
>>>>>Begin Spectral Data<<<<<
194.7	-82.509
194.9	-85.97
195.2	-86.057
195.5	-84.404
195.7	-72.892
196	-72.094
196.2	-67.548
196.5	-63.641
196.8	-64.516
197	-58.248
197.3	-55.451
197.6	-47.621
197.8	-43.973
198.1	-36.531
198.4	-37.415
198.6	-36.227
198.9	-36.999
199.2	-33.11
199.4	-30.548
199.7	-31.088
200	-28.125
200.2	-25.723
200.5	-21.309
200.7	-20.869
201	-16.649
201.3	-12.575
201.5	-9.238
201.8	-4.442
202.1	5.491
202.3	9.531
202.6	16.81
202.9	35.579
203.1	50.936
203.4	69.181
203.7	92.229
203.9	99.145
204.2	94.85
204.5	98.427
204.7	103.233
205	106.969
205.2	110.757
205.5	109.835
205.8	114.775
206	117.332
206.3	124.871
206.6	130.051
206.8	130.7
207.1	131.573
207.4	130.43
207.6	130.58
207.9	126.531
208.2	127.911
208.4	129.688
208.7	138.388
208.9	138.259
209.2	134.486
209.5	140.238
209.7	136.515
210	143.394
210.3	139.345
210.5	139.434
210.8	141.395
211.1	147.337
211.3	155.5
211.6	161.754
211.9	157.545
212.1	163.415
212.4	166.345
212.6	168.61
212.9	173.39
213.2	174.847
213.4	175.387
213.7	171.805
214	167.8
214.2	165.488
214.5	169.495
214.8	168.738
215	171.004
215.3	172.875
215.5	174.767
215.8	177.862
216.1	176.341
216.3	179.657
216.6	179.542
216.9	178.992
217.1	176.869
217.4	171.87
217.7	172.586
217.9	173.597
218.2	166.558
218.5	162.779
218.7	163.144
219	158.344
219.2	158.217
219.5	156.072
219.8	156.495
220	150.198
220.3	151.445
220.6	151.172
220.8	151.798
221.1	151.437
221.4	151.72
221.6	152.517
221.9	150.597
222.1	153.475
222.4	147.079
222.7	142.989
222.9	144.518
223.2	147.142
223.5	145.652
223.7	147.551
224	146.151
224.2	145.592
224.5	143.518
224.8	141.354
225	139.541
225.3	144.953
225.6	149.407
225.8	147.616
226.1	145.336
226.4	144.892
226.6	142.819
226.9	141.491
227.1	141.583
227.4	134.549
227.7	140.586
227.9	143.998
228.2	142.139
228.5	139.036
228.7	138.229
229	138.451
229.3	133.282
229.5	132.811
229.8	135.307
230	139.179
230.3	137.167
230.6	137.645
230.8	145.556
231.1	145.616
231.4	143.063
231.6	142.38
231.9	142.564
232.1	147.114
232.4	142.458
232.7	144.993
232.9	148.177
233.2	151.112
233.5	154.928
233.7	147.999
234	142.561
234.2	139.446
234.5	143.429
234.8	136.78
235	142.691
235.3	144.425
235.6	148.367
235.8	143.455
236.1	144.759
236.4	150.785
236.6	147.438
236.9	146.402
237.1	147.283
237.4	144.329
237.7	141.929
237.9	136.305
238.2	135.003
238.5	141.035
238.7	141.777
239	146.627
239.2	144.37
239.5	145.687
239.8	145.911
240	144.69
240.3	146.96
240.6	147.158
240.8	152.465
241.1	157.98
241.3	161.752
241.6	153.398
241.9	152.271
242.1	149.097
242.4	148.187
242.7	150.382
242.9	151.889
243.2	153.855
243.4	158.38
243.7	154.672
244	152.126
244.2	151.039
244.5	149.68
244.8	149.65
245	147.965
245.3	152.322
245.5	152.575
245.8	150.602
246.1	145.008
246.3	146.954
246.6	144.786
246.9	144.275
247.1	144.667
247.4	146.732
247.6	150.851
247.9	151.143
248.2	144.867
248.4	142.078
248.7	137.015
248.9	136.588
249.2	132.939
249.5	130.556
249.7	136.542
250	140.799
250.3	143.953
250.5	139.185
250.8	141.473
251	144.172
251.3	150.254
251.6	148.088
251.8	149.562
252.1	152.126
252.4	146.323
252.6	145.08
252.9	144.757
253.1	144.793
253.4	146.332
253.7	151.195
253.9	155.752
254.2	154.764
254.4	154.639
254.7	157.193
255	154.387
255.2	154.621
255.5	151.825
255.8	149.115
256	148.204
256.3	148.492
256.5	149.795
256.8	143.125
257.1	139.55
257.3	132.421
257.6	133.029
257.8	133.148
258.1	139.698
258.4	143.302
258.6	138.202
258.9	134.197
259.2	131.754
259.4	130.617
259.7	125.101
259.9	125.71
260.2	124.978
260.5	132.491
260.7	131.75
261	130.462
261.2	130.986
261.5	131.134
261.8	135.054
262	138.046
262.3	140.337
262.6	141.843
262.8	132.094
263.1	128.956
263.3	127.283
263.6	125.828
263.9	127.989
264.1	130.847
264.4	133.752
264.6	130.823
264.9	134.32
265.2	131.834
265.4	129.677
265.7	127.389
266	124.195
266.2	121.062
266.5	125.754
266.7	124.303
267	118.345
267.3	111.879
267.5	107.398
267.8	101.443
268	98.568
268.3	101.505
268.6	103.31
268.8	106.677
269.1	107.132
269.3	111.314
269.6	114.264
269.9	111.856
270.1	112.247
270.4	106.9
270.6	105.835
270.9	108.634
271.2	111.671
271.4	116.775
271.7	121.248
272	124.576
272.2	122.244
272.5	122.229
272.7	123.109
273	124.988
273.3	129.51
273.5	127.492
273.8	135.467
274	130.834
274.3	130.596
274.6	138.674
274.8	139.511
275.1	136.806
275.3	134.019
275.6	133.295
275.9	133.425
276.1	135.946
276.4	127.368
276.6	125.934
276.9	129.657
277.2	126.973
277.4	133.49
277.7	130.971
277.9	137.183
278.2	134.819
278.5	129.973
278.7	138.184
279	143.686
279.2	142.251
279.5	138.004
279.8	135.304
280	135.086
280.3	138.929
280.5	139.58
280.8	131.689
281.1	133.55
281.3	135.81
281.6	139.076
281.9	140.949
282.1	155.159
282.4	156.664
282.6	156.279
282.9	158.957
283.2	162.392
283.4	167.023
283.7	168.138
283.9	171.343
284.2	164.216
284.5	162.967
284.7	166.521
285	166.532
285.2	162.788
285.5	156.738
285.8	161.434
286	159.454
286.3	167.133
286.5	168.495
286.8	161.306
287.1	156.235
287.3	153.993
287.6	159.732
287.8	162.829
288.1	165.478
288.4	164.415
288.6	167.487
288.9	167.5
289.1	161.453
289.4	164.851
289.7	164.783
289.9	165.459
290.2	169.94
290.4	162.968
290.7	164.482
290.9	167.838
291.2	171.775
291.5	171.66
291.7	170.216
292	170.268
292.2	170.156
292.5	171.958
292.8	166.957
293	169.202
293.3	158.422
293.5	159.776
293.8	156.842
294.1	158.664
294.3	164.023
294.6	164.44
294.8	166.271
295.1	169.603
295.4	171.406
295.6	169.985
295.9	174.09
296.1	174.494
296.4	177.945
296.7	183.367
296.9	182.62
297.2	187.652
297.4	189.502
297.7	186.851
298	170.311
298.2	166.521
298.5	167.497
298.7	166.69
299	166.802
299.3	164.566
299.5	170.662
299.8	171.151
300	171.399
300.3	170.983
300.5	163.833
300.8	164.771
301.1	162.731
301.3	168.544
301.6	168.339
301.8	168.85
302.1	168.042
302.4	170.772
302.6	175.362
302.9	179.203
303.1	174.21
303.4	169.53
303.7	168.788
303.9	163.899
304.2	162.98
304.4	163.343
304.7	160.74
304.9	164.088
305.2	167.475
305.5	166.357
305.7	163.534
306	162.046
306.2	164.212
306.5	166.052
306.8	167.84
307	163.961
307.3	164.905
307.5	167.6
307.8	168.981
308.1	170.902
308.3	171.959
308.6	174.015
308.8	174.91
309.1	177.224
309.3	178.923
309.6	179.776
309.9	175.874
310.1	174.882
310.4	172.101
310.6	172.703
310.9	175.501
311.2	176.411
311.4	176.211
311.7	170.487
311.9	165.832
312.2	165.891
312.5	164.529
312.7	168.92
313	164.723
313.2	162.11
313.5	163.934
313.7	167.124
314	168.058
314.3	167.7
314.5	171.11
314.8	170.704
315	173.302
315.3	169.866
315.6	168.8
315.8	172.929
316.1	175.934
316.3	178.966
316.6	180.427
316.8	186.487
317.1	182.696
317.4	181.077
317.6	190.134
317.9	190.1
318.1	193.581
318.4	192.899
318.6	200.246
318.9	206.66
319.2	208.441
319.4	214.767
319.7	224.54
319.9	233.452
320.2	237.583
320.5	247.074
320.7	251.795
321	255.797
321.2	254.761
321.5	267.099
321.7	274.907
322	283.977
322.3	295.175
322.5	303.157
322.8	315.513
323	327.685
323.3	337.661
323.5	347.558
323.8	363.303
324.1	378.285
324.3	394.751
324.6	406.796
324.8	435.009
325.1	448.03
325.4	464.9
325.6	485.973
325.9	506.328
326.1	528.903
326.4	548.818
326.6	570.697
326.9	591.432
327.2	620.822
327.4	647.17
327.7	677.091
327.9	701.003
328.2	728.342
328.4	750.792
328.7	779.234
329	805.081
329.2	834.363
329.5	870.571
329.7	902.567
330	937.287
330.2	968.927
330.5	1004.137
330.8	1040.39
331	1078.875
331.3	1119.573
331.5	1161.014
331.8	1209.626
332	1253.604
332.3	1297.446
332.6	1348.351
332.8	1402.999
333.1	1460.702
333.3	1508.154
333.6	1563.389
333.8	1613.511
334.1	1667.825
334.4	1723.36
334.6	1785.218
334.9	1849.52
335.1	1914.232
335.4	1981.637
335.6	2044.458
335.9	2105.003
336.2	2167.344
336.4	2227.214
336.7	2284.928
336.9	2352.945
337.2	2413.116
337.4	2475.317
337.7	2544.66
338	2610.241
338.2	2676.676
338.5	2746.748
338.7	2821.209
339	2895.605
339.2	2970.221
339.5	3044.852
339.8	3114.359
340	3187.567
340.3	3264.246
340.5	3328.533
340.8	3406.873
341	3481.701
341.3	3557.56
341.6	3633.827
341.8	3708.916
342.1	3788.442
342.3	3870.192
342.6	3958.897
342.8	4047.681
343.1	4146.895
343.4	4239.657
343.6	4336.741
343.9	4430.658
344.1	4523.598
344.4	4616.676
344.6	4711.425
344.9	4814.663
345.1	4902.276
345.4	4997.246
345.7	5096.388
345.9	5202.501
346.2	5310.172
346.4	5421.42
346.7	5539.63
346.9	5651.795
347.2	5766.219
347.5	5875.669
347.7	5982.469
348	6089.213
348.2	6188.248
348.5	6282.214
348.7	6372.005
349	6457.344
349.2	6533.965
349.5	6612.461
349.8	6687.317
350	6755.134
350.3	6817.573
350.5	6876.117
350.8	6929.545
351	6978.578
351.3	7044.446
351.6	7123.845
351.8	7213.72
352.1	7317.32
352.3	7429.012
352.6	7533.44
352.8	7632.998
353.1	7731.804
353.3	7820.594
353.6	7906.519
353.9	7989.79
354.1	8079.28
354.4	8158.01
354.6	8250.248
354.9	8340.725
355.1	8438.573
355.4	8542.86
355.6	8643.65
355.9	8752.648
356.2	8859.125
356.4	8969.855
356.7	9072.938
356.9	9179.246
357.2	9292.191
357.4	9398.531
357.7	9512.827
358	9633.744
358.2	9764.434
358.5	9891.358
358.7	10023.166
359	10158.462
359.2	10290.969
359.5	10420.995
359.7	10556.224
360	10688.139
360.3	10806.238
360.5	10916.836
360.8	11035.875
361	11152.93
361.3	11267.175
361.5	11383.901
361.8	11500.39
362	11621.145
362.3	11733.48
362.6	11845.798
362.8	11953.582
363.1	12057.933
363.3	12167.133
363.6	12285.635
363.8	12395.661
364.1	12510.268
364.3	12618.913
364.6	12727.947
364.8	12842.992
365.1	12959.753
365.4	13061.171
365.6	13160.699
365.9	13265.367
366.1	13358.887
366.4	13451.08
366.6	13544.457
366.9	13631.299
367.1	13714.892
367.4	13782.082
367.7	13849.663
367.9	13921.156
368.2	13999.272
368.4	14089.158
368.7	14177.145
368.9	14267.228
369.2	14362.637
369.4	14477.582
369.7	14596.661
370	14732.478
370.2	14862.632
370.5	15000.842
370.7	15133.484
371	15265.211
371.2	15379.633
371.5	15469.045
371.7	15546.293
372	15612.542
372.2	15688.433
372.5	15756.814
372.8	15825.027
373	15901.319
373.3	15973.573
373.5	16026.499
373.8	16058.52
374	16082.908
374.3	16081.409
374.5	16056.482
374.8	16021.401
375	15975.212
375.3	15920.482
375.6	15855.582
375.8	15796.209
376.1	15730.838
376.3	15683.099
376.6	15648.928
376.8	15624.06
377.1	15599.361
377.3	15594.74
377.6	15584.196
377.8	15573.663
378.1	15562.364
378.4	15552.149
378.6	15544.148
378.9	15538.571
379.1	15522.687
379.4	15524.4
379.6	15528.649
379.9	15538.38
380.1	15546.367
380.4	15562.058
380.6	15567.223
380.9	15598.05
381.2	15640.845
381.4	15683.311
381.7	15747.213
381.9	15833.781
382.2	15935.467
382.4	16028.232
382.7	16118.135
382.9	16224.563
383.2	16329.448
383.4	16423.321
383.7	16526.332
383.9	16618.617
384.2	16707.202
384.5	16791.549
384.7	16845.438
385	16864.177
385.2	16836.836
385.5	16763.446
385.7	16660.358
386	16546.957
386.2	16427.356
386.5	16322.804
386.7	16262.559
387	16250.263
387.2	16271.069
387.5	16315.668
387.8	16379.83
388	16445.142
388.3	16501.37
388.5	16531.842
388.8	16521.285
389	16497.14
389.3	16465.274
389.5	16434.929
389.8	16431.211
390	16473.258
390.3	16566.056
390.5	16697.421
390.8	16875.257
391.1	17074.361
391.3	17316.349
391.6	17560.648
391.8	17810.231
392.1	18050.319
392.3	18272.377
392.6	18492.439
392.8	18702.995
393.1	18909.904
393.3	19110.691
393.6	19322.032
393.8	19543.413
394.1	19771.78
394.4	20005.871
394.6	20228.565
394.9	20452.067
395.1	20667.067
395.4	20885.303
395.6	21108.697
395.9	21318.325
396.1	21540.728
396.4	21753.516
396.6	21954.015
396.9	22149.423
397.1	22336.946
397.4	22503.457
397.6	22650.415
397.9	22795.397
398.2	22946.644
398.4	23069.879
398.7	23184.347
398.9	23286.557
399.2	23388.994
399.4	23493.683
399.7	23613.625
399.9	23732.929
400.2	23881.327
400.4	24053.869
400.7	24283.566
400.9	24544.534
401.2	24829.534
401.4	25126.805
401.7	25426.829
401.9	25693.333
402.2	25935.403
402.5	26116.841
402.7	26280.38
403	26418.881
403.2	26559.238
403.5	26699.324
403.7	26858.593
404	27048.735
404.2	27270.961
404.5	27515.468
404.7	27797.375
405	28064.088
405.2	28332.24
405.5	28555.945
405.7	28756.949
406	28919.693
406.2	29041.981
406.5	29163.557
406.7	29255.42
407	29331.419
407.3	29380.697
407.5	29430.143
407.8	29481.66
408	29519.153
408.3	29540.165
408.5	29579.097
408.8	29625.355
409	29675.84
409.3	29689.597
409.5	29709.359
409.8	29706.428
410	29715.465
410.3	29708.205
410.5	29704.224
410.8	29698.253
411	29686.258
411.3	29691.284
411.5	29698.688
411.8	29699.079
412	29709.057
412.3	29721.608
412.6	29710.017
412.8	29723.684
413.1	29739.172
413.3	29778.484
413.6	29794.916
413.8	29834.143
414.1	29879.816
414.3	29929.846
414.6	29962.693
414.8	29987.115
415.1	29995.757
415.3	30014.399
415.6	30014.526
415.8	30024.48
416.1	30011.387
416.3	30000.887
416.6	29992.811
416.8	29981.809
417.1	29952.031
417.3	29941.542
417.6	29939.404
417.8	29953.32
418.1	29969.087
418.4	29988.478
418.6	29989.074
418.9	29993.58
419.1	29963.178
419.4	29937.12
419.6	29923.174
419.9	29878.936
420.1	29821.238
420.4	29779.097
420.6	29710.337
420.9	29678.439
421.1	29625.518
421.4	29585.111
421.6	29532.067
421.9	29457.892
422.1	29362.558
422.4	29272.745
422.6	29175.869
422.9	29051.826
423.1	28911.853
423.4	28790.026
423.6	28690.28
423.9	28594.109
424.1	28508.483
424.4	28448.232
424.6	28417.613
424.9	28382.713
425.1	28381.798
425.4	28369.121
425.6	28388.297
425.9	28386.448
426.2	28376.795
426.4	28374.911
426.7	28349.562
426.9	28333.631
427.2	28333.84
427.4	28321.965
427.7	28328.423
427.9	28356.897
428.2	28371.901
428.4	28410.433
428.7	28433.601
428.9	28473.584
429.2	28511.644
429.4	28534.583
429.7	28552.856
429.9	28586.005
430.2	28611.854
430.4	28622.787
430.7	28634.666
430.9	28648.99
431.2	28649.231
431.4	28640.474
431.7	28648.496
431.9	28663.577
432.2	28676.812
432.4	28700.43
432.7	28723.297
432.9	28748.19
433.2	28786.822
433.4	28816.024
433.7	28854.242
433.9	28896.478
434.2	28964.857
434.4	29024.857
434.7	29085.524
434.9	29139.967
435.2	29226.686
435.4	29297.273
435.7	29367.018
435.9	29459.891
436.2	29526.033
436.4	29598.078
436.7	29686.374
436.9	29788.37
437.2	29893.977
437.4	30021.985
437.7	30144.63
437.9	30274.509
438.2	30420.889
438.4	30587.853
438.7	30731.781
438.9	30869.879
439.2	30989.456
439.4	31112.625
439.7	31192.178
439.9	31266.357
440.2	31348.601
440.5	31421.979
440.7	31501.005
441	31568.38
441.2	31646.611
441.5	31718.541
441.7	31813.039
442	31932.734
442.2	32019.242
442.5	32113.49
442.7	32224.275
443	32325.267
443.2	32425.319
443.5	32515.451
443.7	32591.808
444	32637.831
444.2	32705.933
444.5	32769.458
444.7	32837.485
445	32901.029
445.2	32941.45
445.5	32982.792
445.7	33052.649
446	33115.053
446.2	33200.296
446.5	33291.689
446.7	33399.314
447	33494.992
447.2	33562.428
447.5	33635.765
447.7	33719.622
448	33796.068
448.2	33878.251
448.5	33961.746
448.7	34062.726
449	34139.974
449.2	34233.466
449.5	34298.354
449.7	34393.795
450	34482.794
450.2	34547.891
450.5	34601.49
450.7	34671.105
451	34748.899
451.2	34813.611
451.5	34888.74
451.7	34959.31
452	35028.565
452.2	35068.388
452.5	35141.862
452.7	35194.344
452.9	35281.803
453.2	35363.147
453.4	35451.991
453.7	35555.064
453.9	35673.326
454.2	35775.498
454.4	35872.252
454.7	35955.504
454.9	36057.26
455.2	36147.277
455.4	36224.334
455.7	36306.594
455.9	36385.544
456.2	36440.578
456.4	36523.625
456.7	36605.637
456.9	36682.43
457.2	36733.371
457.4	36791.106
457.7	36827.05
457.9	36883.492
458.2	36930.565
458.4	36976.233
458.7	37003.93
458.9	37028.525
459.2	37067.637
459.4	37084.553
459.7	37100.339
459.9	37149.416
460.2	37187.233
460.4	37256.829
460.7	37322.046
460.9	37385.12
461.2	37455.457
461.4	37526.651
461.7	37581.222
461.9	37644.898
462.2	37688.828
462.4	37744.781
462.7	37793.297
462.9	37834.551
463.2	37873.521
463.4	37896.804
463.7	37920.54
463.9	37943.665
464.2	37975.354
464.4	38009.132
464.7	38029.372
464.9	38051.474
465.2	38066.79
465.4	38105.22
465.7	38157.806
465.9	38192.862
466.2	38227.986
466.4	38281.102
466.6	38322.414
466.9	38371.838
467.1	38411.411
467.4	38494.972
467.6	38534.278
467.9	38605.43
468.1	38657.702
468.4	38711.362
468.6	38768.637
468.9	38801.624
469.1	38829.363
469.4	38872.745
469.6	38923.234
469.9	38977.453
470.1	39023.817
470.4	39090.619
470.6	39146.383
470.9	39200.558
471.1	39265.331
471.4	39340.426
471.6	39399.135
471.9	39486.903
472.1	39557.779
472.4	39649.729
472.6	39747.051
472.9	39854.316
473.1	39938.298
473.4	40027.544
473.6	40127.054
473.9	40248.124
474.1	40366.184
474.3	40494.515
474.6	40629.452
474.8	40762.029
475.1	40865.476
475.3	40994.348
475.6	41104.992
475.8	41238.096
476.1	41370.985
476.3	41498.421
476.6	41608.109
476.8	41732.026
477.1	41835.292
477.3	41951.641
477.6	42071.719
477.8	42178.304
478.1	42274.324
478.3	42367.748
478.6	42439.776
478.8	42498.812
479.1	42541.304
479.3	42602.218
479.6	42639.604
479.8	42707.102
480.1	42780.538
480.3	42849.734
480.5	42929.327
480.8	43009.804
481	43112.984
481.3	43212.31
481.5	43288.778
481.8	43390.37
482	43501.638
482.3	43613.731
482.5	43713.811
482.8	43837.09
483	43950.444
483.3	44058.713
483.5	44175.777
483.8	44282.281
484	44403.058
484.3	44510.354
484.5	44601.982
484.8	44690.431
485	44769.297
485.2	44851.708
485.5	44930.408
485.7	45013.204
486	45088.514
486.2	45159.375
486.5	45231.235
486.7	45319.982
487	45391.025
487.2	45472.172
487.5	45545.559
487.7	45617.639
488	45698.027
488.2	45762.393
488.5	45824.459
488.7	45880.998
489	45934.263
489.2	45987.377
489.5	46045.591
489.7	46084.587
489.9	46127.793
490.2	46170.693
490.4	46212.511
490.7	46252.418
490.9	46278.408
491.2	46298.479
491.4	46321.334
491.7	46354.914
491.9	46385.957
492.2	46422.591
492.4	46456.03
492.7	46487.795
492.9	46528.377
493.2	46587.674
493.4	46641.071
493.6	46709.238
493.9	46784.253
494.1	46864.783
494.4	46926.146
494.6	46990.176
494.9	47032.032
495.1	47070.274
495.4	47114.619
495.6	47145.134
495.9	47173.114
496.1	47181.262
496.4	47178.398
496.6	47188.79
496.9	47182.124
497.1	47163.006
497.3	47144.576
497.6	47120.774
497.8	47096.799
498.1	47073.658
498.3	47063.262
498.6	47047.203
498.8	47037.813
499.1	47023.779
499.3	47027.446
499.6	47023.789
499.8	47015.341
500.1	47013.761
500.3	46997.113
500.6	46979.175
500.8	46957.22
501	46937.931
501.3	46912.036
501.5	46899.281
501.8	46867.416
502	46840.277
502.3	46801.775
502.5	46766.355
502.8	46727.522
503	46680.048
503.3	46641.665
503.5	46615.179
503.8	46570.845
504	46539.973
504.2	46507.51
504.5	46473.879
504.7	46437.438
505	46401.51
505.2	46360.294
505.5	46318.104
505.7	46276.607
506	46243.68
506.2	46210.749
506.5	46165.104
506.7	46111.899
506.9	46062.611
507.2	46006.918
507.4	45955.644
507.7	45913.642
507.9	45870.685
508.2	45820.315
508.4	45786.059
508.7	45751.859
508.9	45710.235
509.2	45653.324
509.4	45587.843
509.7	45507.756
509.9	45425.088
510.1	45342.889
510.4	45245.64
510.6	45146.938
510.9	45052.653
511.1	44959.894
511.4	44878.592
511.6	44802.125
511.9	44739.595
512.1	44682.489
512.4	44627.906
512.6	44577.213
512.8	44522.59
513.1	44465.266
513.3	44398.65
513.6	44344.174
513.8	44288.4
514.1	44233.845
514.3	44178.128
514.6	44128.882
514.8	44086.187
515.1	44037.711
515.3	43992.408
515.5	43941.399
515.8	43894.926
516	43841.718
516.3	43811.399
516.5	43759.306
516.8	43721.986
517	43688.553
517.3	43649.724
517.5	43607.523
517.7	43577.335
518	43550.124
518.2	43511.112
518.5	43458.174
518.7	43416.216
519	43344.357
519.2	43265.614
519.5	43177.864
519.7	43097.389
520	43008.506
520.2	42930.393
520.4	42858.641
520.7	42783.159
520.9	42725.18
521.2	42671.115
521.4	42636.049
521.7	42608.177
521.9	42585.563
522.2	42565.096
522.4	42542.786
522.6	42511.469
522.9	42483.221
523.1	42458.144
523.4	42446.67
523.6	42427.345
523.9	42425.081
524.1	42438.167
524.4	42458.993
524.6	42494.947
524.8	42529.371
525.1	42539.607
525.3	42559.652
525.6	42585.952
525.8	42585.695
526.1	42607.713
526.3	42626.358
526.6	42629.86
526.8	42619.633
527	42610.574
527.3	42591.672
527.5	42576.492
527.8	42561.874
528	42543.462
528.3	42526.64
528.5	42513.909
528.8	42492.907
529	42464.598
529.2	42427.29
529.5	42394.213
529.7	42356.499
530	42313.65
530.2	42276.437
530.5	42243.998
530.7	42219.296
531	42201.342
531.2	42152.487
531.4	42113.287
531.7	42063.003
531.9	42005.837
532.2	41949.399
532.4	41893.211
532.7	41821.949
532.9	41749.675
533.2	41680.592
533.4	41609.58
533.6	41539.661
533.9	41486.478
534.1	41441.198
534.4	41403.101
534.6	41366.153
534.9	41341.08
535.1	41307.422
535.3	41266.142
535.6	41235.59
535.8	41190.63
536.1	41142.587
536.3	41087.894
536.6	41034.426
536.8	40962.355
537.1	40900.033
537.3	40833.785
537.5	40770.943
537.8	40712.653
538	40660.271
538.3	40582.502
538.5	40510.962
538.8	40433.369
539	40361.441
539.2	40295.483
539.5	40223.816
539.7	40164.917
540	40110.808
540.2	40056.565
540.5	39994.117
540.7	39949.606
540.9	39883.943
541.2	39826.499
541.4	39772.546
541.7	39723.51
541.9	39668.703
542.2	39616.48
542.4	39554.826
542.7	39492.756
542.9	39427.239
543.1	39361.204
543.4	39287.877
543.6	39214.087
543.9	39142.328
544.1	39082.358
544.4	39018.797
544.6	38961.135
544.8	38902.083
545.1	38847.65
545.3	38788.064
545.6	38732.081
545.8	38650.608
546.1	38590.171
546.3	38525.516
546.5	38462.527
546.8	38398.976
547	38348.976
547.3	38287.987
547.5	38251.025
547.8	38207.807
548	38168.937
548.2	38135.328
548.5	38102.675
548.7	38061.911
549	38015.329
549.2	37972.748
549.5	37926.996
549.7	37870.718
549.9	37818.264
550.2	37766.886
550.4	37710.131
550.7	37646.692
550.9	37579.606
551.2	37502.971
551.4	37425.809
551.6	37350.765
551.9	37268.059
552.1	37183.975
552.4	37102.132
552.6	37006.55
552.9	36915.52
553.1	36832.941
553.3	36760.74
553.6	36683.544
553.8	36609.228
554.1	36533.872
554.3	36456.734
554.5	36373.648
554.8	36305.863
555	36230.875
555.3	36162.138
555.5	36095.897
555.8	36033.643
556	35964.688
556.2	35900
556.5	35826.245
556.7	35758.81
557	35686.1
557.2	35616.673
557.5	35541.433
557.7	35473.266
557.9	35397.738
558.2	35321.868
558.4	35241.508
558.7	35168.969
558.9	35087.816
559.2	35016.435
559.4	34938.18
559.6	34870.573
559.9	34799.562
560.1	34733.099
560.4	34655.001
560.6	34597.658
560.8	34533.264
561.1	34477.411
561.3	34413.536
561.6	34347.201
561.8	34273.387
562.1	34217.965
562.3	34144.747
562.5	34077.749
562.8	34008.938
563	33940.254
563.3	33877.258
563.5	33812.772
563.7	33749.785
564	33685.866
564.2	33627.71
564.5	33577.203
564.7	33526.464
565	33483.008
565.2	33435.392
565.4	33395.206
565.7	33355.484
565.9	33328.152
566.2	33297.109
566.4	33271.53
566.6	33248.124
566.9	33227.191
567.1	33199.974
567.4	33180.699
567.6	33145.582
567.9	33107.639
568.1	33065.265
568.3	33026.019
568.6	32970.025
568.8	32925.396
569.1	32873.896
569.3	32828.309
569.5	32773.71
569.8	32723.445
570	32671.084
570.3	32612.653
570.5	32553.58
570.7	32485.532
571	32426.039
571.2	32360.65
571.5	32289.87
571.7	32222.335
572	32157.294
572.2	32094.301
572.4	32024.97
572.7	31961.319
572.9	31906.676
573.2	31859.484
573.4	31803.882
573.6	31752.373
573.9	31689.992
574.1	31640.501
574.4	31583.16
574.6	31525.014
574.8	31465.787
575.1	31411.585
575.3	31355.007
575.6	31297.332
575.8	31235.046
576	31175.415
576.3	31124.517
576.5	31073.244
576.8	31013.05
577	30961.414
577.3	30909.392
577.5	30849.203
577.7	30788.584
578	30715.454
578.2	30652.728
578.5	30592.579
578.7	30525.835
578.9	30455.59
579.2	30383.005
579.4	30311.471
579.7	30235.063
579.9	30149.982
580.1	30073.901
580.4	29993.402
580.6	29902.448
580.9	29809.263
581.1	29709.452
581.3	29595.234
581.6	29476.939
581.8	29353.606
582.1	29213.641
582.3	29076.392
582.5	28944.188
582.8	28806.838
583	28678.583
583.3	28557.079
583.5	28428.326
583.7	28315.357
584	28201.016
584.2	28091.595
584.5	27990.741
584.7	27883.834
584.9	27782.867
585.2	27683.022
585.4	27595.797
585.7	27500.462
585.9	27421.806
586.1	27347.573
586.4	27267.492
586.6	27190.494
586.9	27110.623
587.1	27027.859
587.3	26950.768
587.6	26855.126
587.8	26768.682
588.1	26690.079
588.3	26613.28
588.5	26539.108
588.8	26458.012
589	26381.669
589.3	26310.602
589.5	26242.863
589.7	26171.427
590	26101.571
590.2	26034.649
590.5	25975.196
590.7	25914.126
590.9	25848.448
591.2	25787.656
591.4	25735.193
591.7	25676.194
591.9	25623.805
592.1	25584.553
592.4	25540.777
592.6	25509.686
592.9	25484.166
593.1	25452.255
593.3	25425.2
593.6	25399.973
593.8	25378.827
594.1	25354.968
594.3	25330.231
594.5	25316.957
594.8	25295.32
595	25281.654
595.3	25271.245
595.5	25265.959
595.7	25273.927
596	25290.036
596.2	25318.955
596.4	25359.616
596.7	25415.481
596.9	25468.274
597.2	25528.551
597.4	25593.431
597.6	25642.146
597.9	25696.353
598.1	25744.37
598.4	25788.077
598.6	25828.644
598.8	25863.717
599.1	25889.753
599.3	25926.829
599.6	25957.748
599.8	25986.302
600	26008.017
600.3	26026.323
600.5	26038.724
600.7	26045.668
601	26048.969
601.2	26048.236
601.5	26052.346
601.7	26052.853
601.9	26050.642
602.2	26050.339
602.4	26050.62
602.7	26038.331
602.9	26021.961
603.1	26000.067
603.4	25975.318
603.6	25945.398
603.9	25910.52
604.1	25876.1
604.3	25838.494
604.6	25800.185
604.8	25758.261
605	25706.732
605.3	25657.064
605.5	25605.813
605.8	25549.5
606	25486.213
606.2	25427.188
606.5	25352.144
606.7	25269.076
607	25191.947
607.2	25112.197
607.4	25020.075
607.7	24939.367
607.9	24854.557
608.1	24769.755
608.4	24680.32
608.6	24589.156
608.9	24497.52
609.1	24397.605
609.3	24303.162
609.6	24197.405
609.8	24100.043
610.1	23995.953
610.3	23891.615
610.5	23782.212
610.8	23675.829
611	23567.192
611.2	23459.121
611.5	23354.543
611.7	23245.393
612	23135.579
612.2	23029.975
612.4	22924.129
612.7	22822.877
612.9	22721.426
613.1	22624.213
613.4	22523.425
613.6	22431.065
613.9	22331.432
614.1	22232.617
614.3	22132.08
614.6	22034.844
614.8	21934.13
615	21838.004
615.3	21742.968
615.5	21659.064
615.8	21566.507
616	21474.363
616.2	21387.284
616.5	21296.441
616.7	21211.656
616.9	21119.413
617.2	21031.789
617.4	20945.461
617.7	20860.046
617.9	20777.861
618.1	20705.282
618.4	20625.744
618.6	20540.36
618.8	20464.426
619.1	20379.42
619.3	20300.257
619.6	20224.401
619.8	20146.713
620	20071.236
620.3	19998.231
620.5	19915.313
620.7	19833.623
621	19758.251
621.2	19686.963
621.5	19607.748
621.7	19533.18
621.9	19456.903
622.2	19379.363
622.4	19301.954
622.6	19226.342
622.9	19147.155
623.1	19072.869
623.4	19002.15
623.6	18938.044
623.8	18867.1
624.1	18805.992
624.3	18737.64
624.5	18674.229
624.8	18602.094
625	18541.517
625.3	18474.364
625.5	18407.972
625.7	18344.147
626	18284.461
626.2	18217.249
626.4	18154.772
626.7	18089.091
626.9	18026.693
627.1	17959.741
627.4	17895.591
627.6	17826.255
627.9	17765.981
628.1	17698.6
628.3	17635.443
628.6	17574.898
628.8	17518.768
629	17464.201
629.3	17411.685
629.5	17358.027
629.8	17300.892
630	17239.679
630.2	17189.578
630.5	17143.031
630.7	17096.648
630.9	17051.66
631.2	17005.753
631.4	16957.934
631.6	16915.083
631.9	16878.32
632.1	16846.408
632.4	16802.041
632.6	16761
632.8	16719.535
633.1	16675.928
633.3	16631.744
633.5	16593.869
633.8	16552.501
634	16504.935
634.2	16465.013
634.5	16423.257
634.7	16377.88
635	16347.618
635.2	16307.56
635.4	16277.913
635.7	16249.481
635.9	16220.858
636.1	16189.374
636.4	16158.858
636.6	16135.842
636.8	16115.066
637.1	16083.179
637.3	16060.345
637.5	16036.776
637.8	16006.408
638	15975.908
638.3	15946.327
638.5	15910.72
638.7	15875.796
639	15839.924
639.2	15803.961
639.4	15771.125
639.7	15724.173
639.9	15678.413
640.1	15630.221
640.4	15576.591
640.6	15529.17
640.9	15481.997
641.1	15431.715
641.3	15380.918
641.6	15329.277
641.8	15271.194
642	15215.639
642.3	15154.536
642.5	15103.23
642.7	15042.402
643	14984.038
643.2	14929.496
643.4	14874.574
643.7	14820.96
643.9	14771.459
644.1	14717.865
644.4	14669.877
644.6	14619.8
644.9	14560.133
645.1	14502.287
645.3	14446.26
645.6	14397.606
645.8	14347.368
646	14293.746
646.3	14234.622
646.5	14175.325
646.7	14125.003
647	14071.065
647.2	14018.141
647.4	13972.303
647.7	13923.852
647.9	13866.825
648.1	13811.423
648.4	13758.43
648.6	13702.791
648.9	13644.085
649.1	13582.996
649.3	13511.961
649.6	13443.934
649.8	13366.154
650	13290.11
650.3	13221.973
650.5	13158.552
650.7	13094.373
651	13026.947
651.2	12958.592
651.4	12902.514
651.7	12842.934
651.9	12787.372
652.1	12742.146
652.4	12699.909
652.6	12658.985
652.8	12616.168
653.1	12574.482
653.3	12552.916
653.5	12524.631
653.8	12483.287
654	12451.283
654.3	12426.74
654.5	12396.812
654.7	12375.902
655	12350.032
655.2	12321.853
655.4	12302.915
655.7	12275.432
655.9	12251.121
656.1	12234.064
656.4	12216.239
656.6	12195.776
656.8	12171.85
657.1	12150.601
657.3	12129.585
657.5	12103.886
657.8	12078.444
658	12048.945
658.2	12021.296
658.5	11994.271
658.7	11966.819
658.9	11935.621
659.2	11914.556
659.4	11888.366
659.6	11866.897
659.9	11829.415
660.1	11796.406
660.3	11771.082
660.6	11743.612
660.8	11718.923
661	11693.157
661.3	11658.684
661.5	11636.394
661.8	11609.734
662	11580.614
662.2	11562.416
662.5	11542.796
662.7	11519.972
662.9	11499.427
663.2	11480.924
663.4	11467.222
663.6	11459.654
663.9	11457.584
664.1	11453.166
664.3	11447.254
664.6	11440.14
664.8	11423.535
665	11414.431
665.3	11393.908
665.5	11376.459
665.7	11362.55
666	11342.409
666.2	11318.035
666.4	11284.712
666.7	11250.166
666.9	11216.434
667.1	11188.141
667.4	11161.562
667.6	11109.181
667.8	11072.44
668.1	11038.236
668.3	11012.519
668.5	10971.558
668.8	10942.399
669	10908.528
669.2	10872.171
669.5	10840.793
669.7	10802.476
669.9	10776.93
670.2	10744.974
670.4	10706.761
670.6	10667.755
670.9	10636.935
671.1	10603.051
671.3	10570.21
671.6	10533.315
671.8	10497.127
672	10466.744
672.3	10435.963
672.5	10399.187
672.7	10370.137
673	10334.841
673.2	10306.071
673.4	10267.57
673.7	10233.101
673.9	10193.192
674.1	10166.348
674.4	10135.499
674.6	10097.329
674.8	10062.965
675.1	10024.548
675.3	9986.575
675.5	9958.389
675.8	9919.943
676	9888.985
676.2	9850.935
676.5	9814.504
676.7	9777.503
676.9	9750.975
677.2	9711.654
677.4	9679.115
677.6	9645.188
677.9	9613.448
678.1	9574.139
678.3	9540.921
678.5	9505.234
678.8	9471.191
679	9440.09
679.2	9399.002
679.5	9360.329
679.7	9313.6
679.9	9257.512
680.2	9196.187
680.4	9139.978
680.6	9076.763
680.9	9013.15
681.1	8944.033
681.3	8876.028
681.6	8807.788
681.8	8746.408
682	8682.87
682.3	8620.346
682.5	8553.787
682.7	8495.045
683	8430.321
683.2	8366.757
683.4	8310.795
683.7	8248.896
683.9	8196.502
684.1	8134.114
684.4	8080.951
684.6	8031.596
684.8	7980.94
685.1	7932.377
685.3	7890.336
685.5	7841.657
685.7	7801.035
686	7752.39
686.2	7698.203
686.4	7646.099
686.7	7594.918
686.9	7540.268
687.1	7487.374
687.4	7431.664
687.6	7382.241
687.8	7329.658
688.1	7279.818
688.3	7224.275
688.5	7179.471
688.8	7139.002
689	7087.181
689.2	7044.035
689.5	7001.329
689.7	6952.924
689.9	6912.584
690.2	6866.918
690.4	6831.829
690.6	6794.136
690.8	6758.649
691.1	6717.585
691.3	6683.634
691.5	6646.431
691.8	6607.904
692	6564.911
692.2	6530.341
692.5	6495.787
692.7	6457.503
692.9	6416.903
693.2	6373.964
693.4	6338.618
693.6	6313.035
693.9	6291.715
694.1	6270.559
694.3	6256.593
694.5	6240.227
694.8	6231.197
695	6221.75
695.2	6218.443
695.5	6214.287
695.7	6211.902
695.9	6201.503
696.2	6193.641
696.4	6183.578
696.6	6178.326
696.9	6173.475
697.1	6169.29
697.3	6163.24
697.6	6157.595
697.8	6148.175
698	6139.908
698.2	6131.999
698.5	6117.45
698.7	6107.418
698.9	6098.962
699.2	6082.561
699.4	6059.418
699.6	6044.993
699.9	6029.67
700.1	6020.492
700.3	6007.962
700.6	5998.824
700.8	5986.73
701	5978.957
701.2	5972.8
701.5	5965.048
701.7	5957.718
701.9	5954.879
702.2	5948.094
702.4	5945.334
702.6	5933.775
702.9	5916.625
703.1	5906.252
703.3	5892.976
703.6	5881.334
703.8	5872.736
704	5855.311
704.2	5840.291
704.5	5821.653
704.7	5802.572
704.9	5782.938
705.2	5762.501
705.4	5746.411
705.6	5728.66
705.9	5714.063
706.1	5697.944
706.3	5682.834
706.5	5667.26
706.8	5654.806
707	5642.962
707.2	5629.981
707.5	5617.154
707.7	5597.205
707.9	5579.26
708.2	5565.72
708.4	5555.914
708.6	5541.341
708.8	5529.334
709.1	5516.776
709.3	5502.001
709.5	5481.107
709.8	5455.041
710	5436.345
710.2	5406.954
710.5	5379.739
710.7	5349.499
710.9	5310.012
711.1	5265.948
711.4	5222.978
711.6	5176.906
711.8	5136.537
712.1	5085.034
712.3	5037.149
712.5	4991.394
712.8	4939.089
713	4889.333
713.2	4841.233
713.4	4800.288
713.7	4753.113
713.9	4705.929
714.1	4661.181
714.4	4620.448
714.6	4579.085
714.8	4542.293
715.1	4505.657
715.3	4472.834
715.5	4441.669
715.7	4405.408
716	4373.743
716.2	4335.873
716.4	4298.654
716.7	4263.552
716.9	4225.826
717.1	4187.079
717.3	4146.211
717.6	4107.553
717.8	4066.469
718	4027.308
718.3	3985.358
718.5	3944.236
718.7	3900.627
718.9	3861.349
719.2	3825.818
719.4	3787.297
719.6	3752.88
719.9	3716.294
720.1	3679.355
720.3	3640.604
720.6	3596.449
720.8	3556.014
721	3521.744
721.2	3490.478
721.5	3455.511
721.7	3421.459
721.9	3391.716
722.2	3352.394
722.4	3316.251
722.6	3280.069
722.8	3241.6
723.1	3207.437
723.3	3172.332
723.5	3140.262
723.8	3114.822
724	3091.147
724.2	3071.685
724.4	3055.983
724.7	3037.986
724.9	3026.95
725.1	3024.403
725.4	3020.564
725.6	3016.97
725.8	3016.608
726	3022.277
726.3	3024.818
726.5	3034.489
726.7	3043.445
727	3052.057
727.2	3061.671
727.4	3062.925
727.6	3074.653
727.9	3080.501
728.1	3084.646
728.3	3086.91
728.6	3091.593
728.8	3092.007
729	3089.148
729.2	3082.616
729.5	3072.87
729.7	3067.855
729.9	3055.906
730.2	3056.577
730.4	3052.657
730.6	3056.673
730.8	3058.629
731.1	3071.045
731.3	3078.148
731.5	3077.515
731.7	3086.423
732	3091.776
732.2	3097.62
732.4	3105.251
732.7	3113.223
732.9	3120.557
733.1	3121.735
733.3	3125.849
733.6	3123.968
733.8	3127.384
734	3130.234
734.3	3137.454
734.5	3150.706
734.7	3157.749
734.9	3159.399
735.2	3161.63
735.4	3166.152
735.6	3166.603
735.9	3166.987
736.1	3174.349
736.3	3177.844
736.5	3193.225
736.8	3205.762
737	3209.309
737.2	3215.26
737.4	3227.285
737.7	3236.507
737.9	3239.851
738.1	3245.317
738.4	3251.282
738.6	3258.235
738.8	3267.926
739	3268.153
739.3	3273.637
739.5	3279.072
739.7	3273.46
739.9	3269.16
740.2	3268.667
740.4	3263.338
740.6	3263.48
740.9	3259.997
741.1	3252.719
741.3	3253.056
741.5	3250.404
741.8	3249.642
742	3242.757
742.2	3239.441
742.4	3233.478
742.7	3229.863
742.9	3229.486
743.1	3229.276
743.4	3222.327
743.6	3223.825
743.8	3225.874
744	3221.53
744.3	3217.621
744.5	3206.133
744.7	3197.582
744.9	3187.681
745.2	3182.1
745.4	3175.387
745.6	3163.478
745.8	3156.578
746.1	3149.813
746.3	3143.434
746.5	3137.234
746.8	3132.237
747	3125.724
747.2	3120.017
747.4	3115.012
747.7	3109.398
747.9	3104.161
748.1	3098.464
748.3	3090.982
748.6	3086.702
748.8	3081.073
749	3069.899
749.2	3062.574
749.5	3058.283
749.7	3049.216
749.9	3046.969
750.2	3042.267
750.4	3026.355
750.6	3017.779
750.8	3013.27
751.1	3005.773
751.3	2996.068
751.5	2985.249
751.7	2976.438
752	2968.938
752.2	2959.909
752.4	2945.839
752.6	2919.882
752.9	2897.694
753.1	2866.86
753.3	2833.943
753.5	2804.678
753.8	2771.297
754	2732.379
754.2	2690.445
754.4	2642.913
754.7	2607.166
754.9	2575.801
755.1	2535.581
755.4	2492.223
755.6	2446.674
755.8	2416.093
756	2377.59
756.3	2341.475
756.5	2302.026
756.7	2259.757
756.9	2215.842
757.2	2183.857
757.4	2140.764
757.6	2103.393
757.8	2067.02
758.1	2034.647
758.3	2002.166
758.5	1976.892
758.7	1941.81
759	1908.843
759.2	1881.81
759.4	1854
759.6	1824.421
759.9	1806.4
760.1	1779.126
760.3	1752.811
760.5	1727.128
760.8	1704.014
761	1680.369
761.2	1661.099
761.4	1641.325
761.7	1622.226
761.9	1598.282
762.1	1572.878
762.3	1553.073
762.6	1532.148
762.8	1520.363
763	1503.273
763.2	1485.089
763.5	1470.033
763.7	1449.449
763.9	1430.656
764.1	1415.954
764.4	1399.916
764.6	1384.206
764.8	1371.813
765	1357.473
765.3	1339.76
765.5	1325.33
765.7	1310.307
765.9	1297.633
766.2	1286.016
766.4	1287.123
766.6	1286.676
766.8	1292.118
767.1	1301.547
767.3	1311.037
767.5	1325.832
767.7	1339.444
768	1360.496
768.2	1380.203
768.4	1391.266
768.6	1400.611
768.9	1412.251
769.1	1430.051
769.3	1447.858
769.5	1455.373
769.8	1468.395
770	1483.058
770.2	1499.409
770.4	1508.792
770.7	1523.11
770.9	1535.884
771.1	1549.284
771.3	1557.919
771.6	1569.47
771.8	1580.125
772	1589.395
772.2	1592.41
772.5	1603.295
772.7	1613.96
772.9	1622.004
773.1	1626.391
773.4	1633.785
773.6	1631.449
773.8	1633.793
774	1634.928
774.3	1631.388
774.5	1634.054
774.7	1633.421
774.9	1628.949
775.2	1621.844
775.4	1619.955
775.6	1614.626
775.8	1613.404
776	1607.72
776.3	1603.555
776.5	1590.269
776.7	1585.513
776.9	1578.775
777.2	1569.236
777.4	1560.598
777.6	1556.28
777.8	1548.154
778.1	1536.056
778.3	1526.004
778.5	1518.86
778.7	1508.866
779	1505.002
779.2	1495.681
779.4	1488.026
779.6	1482.811
779.9	1476.168
780.1	1464.483
780.3	1454.539
780.5	1441.746
780.7	1430.314
781	1419.393
781.2	1407.345
781.4	1395.805
781.6	1383.841
781.9	1372.587
782.1	1362.952
782.3	1353.789
782.5	1351.894
782.8	1342.143
783	1333.432
783.2	1328.222
783.4	1322.1
783.7	1312.612
783.9	1304.574
784.1	1299.189
784.3	1291.821
784.5	1285.095
784.8	1279.643
785	1271.733
785.2	1260.01
785.4	1245.132
785.7	1230.878
785.9	1221.975
786.1	1209.155
786.3	1193.491
786.6	1185.464
786.8	1174.553
787	1165.547
787.2	1156.211
787.4	1146.312
787.7	1140.032
787.9	1137.417
788.1	1131.752
788.3	1122.377
788.6	1114.441
788.8	1107.111
789	1094.845
789.2	1087.584
789.5	1075.17
789.7	1073.781
789.9	1067.569
790.1	1066.538
790.3	1057.775
790.6	1052.483
790.8	1046.363
791	1041.45
791.2	1034.504
791.5	1025.511
791.7	1023.52
791.9	1015.652
792.1	1005.314
792.3	999.845
792.6	993.026
792.8	985.48
793	975.608
793.2	968.033
793.5	962.808
793.7	961.261
793.9	959.571
794.1	960.585
794.3	956.049
794.6	949.175
794.8	948.52
795	970.937
795.2	967.965
795.5	970.777
795.7	966.605
795.9	963.389
796.1	955.73
796.3	951.67
796.6	945.772
796.8	936.241
797	931.127
797.2	924.88
797.5	919.112
797.7	916.434
797.9	909.934
798.1	906.257
798.3	895.617
798.6	892.55
798.8	891.848
799	893.303
799.2	891.136
799.5	886.858
799.7	885.826
799.9	886.828
800.1	880.455
800.3	883.676
800.6	880.151
800.8	877.765
801	876.541
801.2	872.91
801.5	866.827
801.7	855.789
801.9	850.885
802.1	846.66
802.3	843.259
802.6	839.585
802.8	837.864
803	837.204
803.2	827.513
803.4	817.678
803.7	812.763
803.9	810.511
804.1	806.76
804.3	799.415
804.6	793.351
804.8	786.033
805	785.845
805.2	785.285
805.4	786.078
805.7	779.501
805.9	779.972
806.1	774.702
806.3	770.645
806.5	765.804
806.8	753.9
807	749.842
807.2	741.542
807.4	729.94
807.6	719.087
807.9	713.7
808.1	711.188
808.3	701.999
808.5	673.514
808.8	668.34
809	655.948
809.2	648.627
809.4	640.232
809.6	635.011
809.9	630.374
810.1	622.347
810.3	618.509
810.5	610.899
810.7	603.49
811	597.181
811.2	592.105
811.4	583.87
811.6	569.237
811.8	569.3
812.1	563.956
812.3	557.895
812.5	546.125
812.7	542.773
812.9	540.329
813.2	529.868
813.4	521.965
813.6	518.122
813.8	510.555
814	503.786
814.3	495.26
814.5	488.225
814.7	480.689
814.9	473.206
815.2	468.134
815.4	462.003
815.6	454.266
815.8	453.395
816	450.751
816.3	446.897
816.5	446.552
816.7	440.208
816.9	435.238
817.1	429.768
817.4	421.657
817.6	421.096
817.8	422.915
818	420.327
818.2	417.541
818.5	410.952
818.7	399.952
818.9	396.886
819.1	393.939
819.3	384.456
819.6	382.384
819.8	379.345
820	377.581
820.2	375.034
820.4	373.209
820.7	368.082
820.9	366.952
821.1	364.128
821.3	363.615
821.5	358.813
821.8	356.256
822	351.744
822.2	348.996
822.4	348.866
822.6	346.538
822.9	346.083
823.1	343.55
823.3	338.139
823.5	335.565
823.7	334.807
823.9	335.442
824.2	337.967
824.4	340.046
824.6	338.382
824.8	343.188
825	349.15
825.3	345.817
825.5	345.418
825.7	341.596
825.9	345.047
826.1	345.71
826.4	344.581
826.6	346.644
826.8	344.692
827	340.582
827.2	339.498
827.5	338.888
827.7	338.321
827.9	336.515
828.1	336.331
828.3	334.303
828.6	334.561
828.8	335.788
829	340.084
829.2	337.495
829.4	334.5
829.6	331.363
829.9	326.385
830.1	328.413
830.3	334.131
830.5	336.836
830.7	338.672
831	335.826
831.2	334.676
831.4	329.342
831.6	327.706
831.8	325.547
832.1	324.857
832.3	319.364
832.5	320.755
832.7	324.002
832.9	320.082
833.1	324.592
833.4	323.39
833.6	320.942
833.8	315.733
834	317.383
834.2	316.742
834.5	315.877
834.7	310.903
834.9	317.072
835.1	314.608
835.3	319.298
835.5	318.892
835.8	316.391
836	320.051
836.2	322.445
836.4	321.661
836.6	320.424
836.9	323.839
837.1	329.808
837.3	325.983
837.5	326.717
837.7	322.344
837.9	322.868
838.2	318.832
838.4	318.44
838.6	317.549
838.8	313.341
839	316.57
839.3	316.969
839.5	317.518
839.7	312.689
839.9	311.106
840.1	316.892
840.3	317.338
840.6	316.137
840.8	316.45
841	315.307
841.2	313.408
841.4	309.266
841.7	313.294
841.9	310.142
842.1	309.128
842.3	308.224
842.5	310.442
842.7	309.823
843	308.037
843.2	308.984
843.4	306.408
843.6	303.91
843.8	300.644
844	299.5
844.3	297.267
844.5	294.989
844.7	298.619
844.9	295.499
845.1	295.17
845.4	293.068
845.6	289.692
845.8	287.467
846	285.05
846.2	288.001
846.4	279.893
846.7	276.164
846.9	274.977
847.1	277.778
847.3	274.907
847.5	272.641
847.7	269.107
848	268.969
848.2	261.599
848.4	260.425
848.6	254.941
848.8	255.167
849	250.301
849.3	246.667
849.5	245.386
849.7	246.098
849.9	250.228
850.1	247.452
850.3	238.848
850.6	238.099
850.8	228.75
851	231.881
851.2	227.928
851.4	227.115
851.6	224.921
851.9	225.218
852.1	225.447
852.3	222.917
852.5	218.739
852.7	208.711
852.9	209.675
853.2	213.071
853.4	207.484
853.6	206.143
853.8	210.762
854	205.974
854.2	205.717
854.5	209.779
854.7	213.913
854.9	211.755
855.1	210.795
855.3	209.017
855.5	205.916
855.8	198.539
856	197.18
856.2	199.075
856.4	195.073
856.6	194.43
856.8	190.982
857.1	187.437
857.3	184.194
857.5	179.2
857.7	177.504
857.9	179.398
858.1	181.581
858.4	183.024
858.6	186.988
858.8	188.255
859	188.439
859.2	185.293
859.4	180.569
859.7	183.041
859.9	187.324
860.1	191.029
860.3	187.223
860.5	184.2
860.7	188.864
860.9	195.011
861.2	194.906
861.4	193.77
861.6	194.788
861.8	195.066
862	194.341
862.2	196.845
862.5	197.538
862.7	194.883
862.9	189.771
863.1	184.13
863.3	187.823
863.5	184.901
863.8	183.95
864	186.07
864.2	180.235
864.4	179.045
864.6	179.715
864.8	179.284
865	178.088
865.3	177.447
865.5	171.343
865.7	171.052
865.9	177.173
866.1	177.223
866.3	172.068
866.6	170.531
866.8	170.505
867	161.611
867.2	160.945
867.4	158.744
867.6	153.673
867.8	147.87
868.1	143.205
868.3	142.211
868.5	147.756
868.7	143.95
868.9	141.882
869.1	139.823
869.3	135.657
869.6	136.821
869.8	135.665
870	136.949
870.2	139.716
870.4	139.98
870.6	141.747
870.9	138.859
871.1	133.979
871.3	129.143
871.5	124.11
871.7	119.447
871.9	118.395
872.1	113
872.4	110.383
872.6	112.36
872.8	118.256
873	117.479
873.2	112.247
873.4	111.592
873.6	114.982
873.9	110.491
874.1	104.604
874.3	98.934
874.5	102.649
874.7	104.984
874.9	98.86
875.1	95.734
875.4	95.989
875.6	92.52
875.8	88.649
876	92.799
876.2	91.283
876.4	89.782
876.6	91.185
876.9	93.491
877.1	92.521
877.3	94.912
877.5	96.521
877.7	94.954
877.9	95.105
878.1	95.679
878.4	93.189
878.6	91.538
878.8	90.533
879	90.683
879.2	91.461
879.4	92.606
879.6	92.762
879.9	90.817
880.1	90.9
880.3	91.58
880.5	96.163
880.7	93.895
880.9	95.565
881.1	91.725
881.3	92.348
881.6	88.873
881.8	92.086
882	90.434
882.2	92.287
882.4	93.826
882.6	93.953
882.8	95.63
883.1	93.51
883.3	88.208
883.5	87.903
883.7	89.42
883.9	91.796
884.1	89.934
884.3	94.03
884.6	98.597
884.8	97.421
885	98.262
885.2	99.314
885.4	100.337
885.6	97.35
885.8	94.973
886	91.842
886.3	91.494
886.5	90.856
886.7	93.75
886.9	92.587
887.1	93.675
887.3	99.317
887.5	96.947
887.8	90.666
888	94.628
888.2	92.481
888.4	93.688
888.6	94.445
888.8	93.397
889	88.57
889.2	85.232
889.5	81.759
889.7	79.936
889.9	80.024
890.1	84.1
890.3	80.598
890.5	77.258
890.7	76.458
890.9	74.16
891.2	73.17
891.4	72.514
891.6	77.269
891.8	79.604
892	75.804
892.2	73.489
892.4	70.471
892.6	68.372
892.9	71.966
893.1	68.512
893.3	70.141
893.5	66.316
893.7	68.806
893.9	68.692
894.1	70.544
894.3	71.223
894.6	68.575
894.8	69.779
895	70.405
895.2	66.809
895.4	65.358
895.6	58.914
895.8	57.256
896	61.195
896.3	64.93
896.5	63.044
896.7	60.292
896.9	63.782
897.1	67.366
897.3	66.347
897.5	63.917
897.7	60.968
898	60.695
898.2	58.623
898.4	59.132
898.6	59.341
898.8	50.937
899	49.752
899.2	50.515
899.4	48.179
899.6	37.859
899.9	35.379
900.1	33.683
900.3	31.047
900.5	27.556
900.7	28.574
900.9	27.966
901.1	30.567
901.3	28.495
901.6	28.623
901.8	31.027
902	31.291
902.2	37.428
902.4	36.805
902.6	38.414
902.8	36.157
903	33.965
903.2	33.542
903.5	33.802
903.7	39.158
903.9	38.412
904.1	35.635
904.3	32.207
904.5	29.148
904.7	29.846
904.9	27.309
905.1	22.376
905.4	24.083
905.6	24.153
905.8	18.045
906	18.16
906.2	16.641
906.4	15.061
906.6	8.991
906.8	6.365
907	9.328
907.3	6.647
907.5	6.572
907.7	0.243
907.9	7.103
908.1	16.488
908.3	13.437
908.5	16
908.7	16.115
908.9	12.972
909.2	6.642
909.4	11.117
909.6	10.635
909.8	7.291
910	6.007
910.2	3.465
910.4	5.299
910.6	10.101
910.8	10.821
911.1	12.598
911.3	13.503
911.5	10.871
911.7	12.049
911.9	17.124
912.1	18.951
912.3	22.35
912.5	24.911
912.7	27.894
912.9	27.529
913.2	24.666
913.4	26.154
913.6	30.029
913.8	32.682
914	29.287
914.2	31.509
914.4	27.099
914.6	29.553
914.8	23.243
915.1	20.72
915.3	16.894
915.5	16.395
915.7	16.009
915.9	13.827
916.1	18.318
916.3	21.023
916.5	11.648
916.7	11.103
916.9	12.139
917.2	15.017
917.4	18.887
917.6	16.221
917.8	16.466
918	20.012
918.2	15.484
918.4	12.488
918.6	16.201
918.8	15.65
919	9.647
919.2	8.455
919.5	9.929
919.7	13.564
919.9	9.304
920.1	10.055
920.3	5.911
920.5	8.204
920.7	3.015
920.9	-5.205
921.1	-3.977
921.3	-5.345
921.6	-8.35
921.8	-9.891
922	-6.394
922.2	-8.861
922.4	-8.051
922.6	-10.917
922.8	-10.542
923	-10.098
923.2	-14.08
923.4	-13.285
923.6	-18.328
923.9	-18.766
924.1	-17.59
924.3	-18.352
924.5	-17.974
924.7	-21.344
924.9	-24.55
925.1	-28.038
925.3	-27.714
925.5	-30.902
925.7	-27.04
925.9	-23.08
926.2	-20.5
926.4	-22.424
926.6	-28.207
926.8	-28.336
927	-34.033
927.2	-33.188
927.4	-32.28
927.6	-21.664
927.8	-21.95
928	-20.155
928.2	-21.761
928.5	-19.565
928.7	-16.416
928.9	-22.241
929.1	-30.165
929.3	-30.524
929.5	-32.247
929.7	-36.109
929.9	-38.976
930.1	-43.287
930.3	-44.15
930.5	-42.432
930.8	-43.718
931	-39.523
931.2	-35.655
931.4	-36.781
931.6	-35.274
931.8	-31.348
932	-30.653
932.2	-28.078
932.4	-32.758
932.6	-32.487
932.8	-31.397
933	-30.801
933.3	-30.38
933.5	-29.818
933.7	-29.509
933.9	-29.401
934.1	-28.773
934.3	-28.672
934.5	-31.334
934.7	-32.238
934.9	-39.408
935.1	-41.385
935.3	-35.444
935.5	-35.666
935.7	-38.589
936	-40.356
936.2	-40.013
936.4	-36.684
936.6	-37.65
936.8	-43.472
937	-39.775
937.2	-39.788
937.4	-41.196
937.6	-40.678
937.8	-38.35
938	-38.612
938.2	-38.254
938.4	-40.18
938.7	-42.708
938.9	-44.822
939.1	-47.869
939.3	-45.084
939.5	-39.667
939.7	-38.434
939.9	-37.727
940.1	-40.577
940.3	-45.73
940.5	-44.365
940.7	-45.114
940.9	-47.35
941.1	-49.864
941.4	-56.915
941.6	-50.711
941.8	-44.863
942	-37.686
942.2	-35.608
942.4	-30.32
942.6	-24.51
942.8	-25.186
943	-24.834
943.2	-29.194
943.4	-29.619
943.6	-31.29
943.8	-31.276
944	-33.454
944.3	-34.638
944.5	-36.812
944.7	-38.907
944.9	-39.593
945.1	-34.774
945.3	-34.881
945.5	-35.738
945.7	-32.5
945.9	-31.966
946.1	-31.78
946.3	-32.41
946.5	-33.715
946.7	-33.146
946.9	-32.5
947.1	-25.737
947.4	-25.818
947.6	-23.922
947.8	-23.321
948	-31.688
948.2	-26.642
948.4	-24.346
948.6	-27.752
948.8	-30.852
949	-31.567
949.2	-29.683
949.4	-26.442
949.6	-27.737
949.8	-24.852
950	-27.164
950.2	-25.559
950.5	-30.349
950.7	-28.418
950.9	-24.291
951.1	-29.519
951.3	-28.739
951.5	-31.542
951.7	-32.062
951.9	-30.573
952.1	-31.33
952.3	-31.311
952.5	-34.652
952.7	-33.439
952.9	-33.076
953.1	-33.496
953.3	-29.469
953.5	-28.114
953.8	-29.519
954	-27.017
954.2	-31.254
954.4	-34.836
954.6	-37.874
954.8	-37.806
955	-41.98
955.2	-46.38
955.4	-46.404
955.6	-49.121
955.8	-45.619
956	-43.854
956.2	-41.721
956.4	-46.678
956.6	-44.931
956.8	-46.152
957	-43.697
957.2	-39.167
957.5	-36.657
957.7	-36.732
957.9	-33.766
958.1	-35.026
958.3	-38.47
958.5	-42.188
958.7	-47.357
958.9	-47.908
959.1	-41.131
959.3	-47.405
959.5	-45.764
959.7	-51.833
959.9	-55.161
960.1	-55.082
960.3	-56.44
960.5	-57.268
960.7	-67.485
960.9	-70.861
961.1	-69.626
961.4	-67.573
961.6	-67.786
961.8	-66.927
962	-68.834
962.2	-72.123
962.4	-74.754
962.6	-67.642
962.8	-69.039
963	-68.706
963.2	-68.338
963.4	-63.943
963.6	-64.379
963.8	-60.868
964	-61.266
964.2	-59.241
964.4	-59.574
964.6	-66.102
964.8	-65
965	-58.512
965.2	-56.441
965.5	-55.155
965.7	-56.376
965.9	-54.306
966.1	-51.591
966.3	-47.585
966.5	-49.179
966.7	-49.29
966.9	-46.17
967.1	-47.139
967.3	-47.701
967.5	-48.067
967.7	-46.573
967.9	-39.711
968.1	-36.708
968.3	-36.355
968.5	-36.746
968.7	-37.343
968.9	-34.098
969.1	-29.938
969.3	-30.266
969.5	-32.832
969.7	-33.709
969.9	-35.953
970.2	-36.091
970.4	-40.01
970.6	-39.083
970.8	-37.482
971	-35.956
971.2	-32.672
971.4	-35.018
971.6	-40.065
971.8	-31.747
972	-34.062
972.2	-32.929
972.4	-30.334
972.6	-24.127
972.8	-21.646
973	-18.339
973.2	-16.268
973.4	-10.649
973.6	-7.826
973.8	-9.663
974	-12.969
974.2	-12.319
974.4	-13.773
974.6	-12.332
974.8	-8.495
975	-12.74
975.2	-8.527
975.5	-7.774
975.7	-9.539
975.9	-17.269
976.1	-10.443
976.3	-11.955
976.5	-9.11
976.7	-12.183
976.9	-13.633
977.1	-14.839
977.3	-16.453
977.5	-20.081
977.7	-23.654
977.9	-20.682
978.1	-20.866
978.3	-23.845
978.5	-24.309
978.7	-28.732
978.9	-25.824
979.1	-25.589
979.3	-29.418
979.5	-25.305
979.7	-28.336
979.9	-27.756
980.1	-26.637
980.3	-32.443
980.5	-32.849
980.7	-29.917
980.9	-29.998
981.1	-27.474
981.3	-27.872
981.5	-34.495
981.7	-32.255
981.9	-24.491
982.2	-24.107
982.4	-24.813
982.6	-30.209
982.8	-26.765
983	-22.881
983.2	-19.341
983.4	-21.28
983.6	-17.534
983.8	-15.306
984	-12.393
984.2	-13.109
984.4	-15.351
984.6	-13.863
984.8	-13.908
985	-16.237
985.2	-20.898
985.4	-20.286
985.6	-20.687
985.8	-27.281
986	-25.703
986.2	-28.396
986.4	-23.038
986.6	-26.141
986.8	-22.995
987	-16.985
987.2	-22.757
987.4	-23.128
987.6	-22.818
987.8	-17.881
988	-18.275
988.2	-16.983
988.4	-19.281
988.6	-22.869
988.8	-26.316
989	-24.034
989.2	-21.437
989.4	-16.201
989.6	-15.591
989.8	-14.522
990	-15.58
990.2	-20.045
990.4	-21.64
990.6	-20.498
990.8	-19.879
991	-19.077
991.3	-17.893
991.5	-19.026
991.7	-16.767
991.9	-20.706
992.1	-20.635
992.3	-16.968
992.5	-18.553
992.7	-18.316
992.9	-17.743
993.1	-20.931
993.3	-23.974
993.5	-28.606
993.7	-31.193
993.9	-27.857
994.1	-31.127
994.3	-38.547
994.5	-41.399
994.7	-40.954
994.9	-38.72
995.1	-34.116
995.3	-37.919
995.5	-40.076
995.7	-36.529
995.9	-38.034
996.1	-36.485
996.3	-38.767
996.5	-43.744
996.7	-45.661
996.9	-50.196
997.1	-51.944
997.3	-53.187
997.5	-49.288
997.7	-49.399
997.9	-47.278
998.1	-43.753
998.3	-44.004
998.5	-44.078
998.7	-46.388
998.9	-47.516
999.1	-47.591
999.3	-51.766
999.5	-52.914
999.7	-55.788
999.9	-60.519
1000.1	-64.694
1000.3	-64.931
1000.5	-64.419
1000.7	-64.935
1000.9	-58.937
1001.1	-54.631
1001.3	-53.19
1001.5	-52.559
1001.7	-53.673
1001.9	-54.642
1002.1	-55.203
1002.3	-54.072
1002.5	-56.663
1002.7	-52.437
1002.9	-58.946
1003.1	-57.76
1003.3	-56.963
1003.5	-59.977
1003.7	-58.848
1003.9	-58.044
1004.1	-59.822
1004.3	-58.83
1004.5	-60.316
1004.7	-60.433
1004.9	-63.529
1005.1	-65.994
1005.3	-67.559
1005.5	-62.338
1005.7	-55.071
1005.9	-53.206
1006.1	-52.603
1006.3	-52.223
1006.5	-49.013
1006.7	-49.763
1006.9	-49.852
1007.1	-50.724
1007.3	-52.771
1007.5	-53.246
1007.7	-55.817
1007.9	-58.292
1008.1	-61.284
1008.3	-60.554
1008.5	-62.476
1008.7	-61.521
1008.9	-58.38
1009.1	-52.834
1009.3	-49.304
1009.5	-49.63
1009.7	-51.398
1009.9	-50.185
1010.1	-54.616
1010.3	-52.96
1010.5	-53.78
1010.7	-50.844
1010.9	-55.186
1011.1	-53.575
1011.3	-55.784
1011.5	-58.665
1011.7	-54.302
1011.9	-52.411
1012.1	-49.607
1012.3	-51.824
1012.5	-55.069
1012.7	-55.47
1012.9	-54.727
1013.1	-61.509
1013.3	-59.012
1013.5	-62.797
1013.7	-64.564
1013.9	-66.802
1014.1	-69.413
1014.3	-71.764
1014.5	-72.452
1014.7	-71.475
1014.9	-76.132
1015.1	-70.772
1015.3	-75.263
1015.5	-76.587
1015.7	-74.356
1015.9	-75.628
1016.1	-79.978
1016.3	-83.854
1016.5	-83.671
1016.7	-85.286
1016.9	-87.104
1017.1	-83.055
1017.3	-84.113
1017.5	-76.388
1017.7	-81.315
1017.9	-90.538
1018.1	-86.786
1018.3	-88.91
1018.5	-84.625
1018.7	-80.743
1018.9	-78.863
1019.1	-79.699
1019.2	-76.324
1019.4	-75.231
1019.6	-78.299
1019.8	-76.584
1020	-76.93
1020.2	-75.698
1020.4	-78.752
1020.6	-78.253
1020.8	-68.077
1021	-67.99
1021.2	-75.529
1021.4	-75.864
1021.6	-76.115
1021.8	-77.593
1022	-77.169
1022.2	-74.714
1022.4	-73.33
1022.6	-74.198
1022.8	-76.855
1023	-73.083
1023.2	-72.52
1023.4	-71.442
1023.6	-68.672
1023.8	-66.927
1024	-66.855
1024.2	-64.628
1024.4	-64.116
1024.6	-58.689
1024.8	-62.591
1025	-63.595
1025.2	-58.92
1025.4	-65.248
1025.6	-63.008
1025.8	-67.835
1026	-70.443
1026.2	-68.322
1026.4	-68.15
1026.6	-69.545
1026.8	-70.141
1027	-67.177
1027.2	-63.262
1027.4	-62.856
1027.6	-58.794
1027.8	-57.505
1028	-55.89
1028.1	-52.56
1028.3	-50.769
1028.5	-47.511
1028.7	-48.103
1028.9	-45.713
1029.1	-46.585
1029.3	-48.721
1029.5	-58.349
1029.7	-59.703
1029.9	-58.954
1030.1	-62.192
1030.3	-59.137
1030.5	-61.279
1030.7	-68.709
1030.9	-70.608
1031.1	-70.041
1031.3	-65.471
1031.5	-73.045
1031.7	-68.154
1031.9	-66.749
1032.1	-63.647
1032.3	-66.161
1032.5	-61.743
1032.7	-63.729
1032.9	-73.209
1033.1	-72.386
1033.3	-70.131
1033.5	-73.901
1033.7	-73.828
1033.9	-74.938
1034.1	-75.353
1034.3	-76.679
1034.4	-82.914
1034.6	-84.854
1034.8	-82.163
1035	-85.37
1035.2	-85.967
1035.4	-89.197
1035.6	-88.741
1035.8	-91.371
1036	-87.874
1036.2	-94.085
1036.4	-91.588
1036.6	-91.873
1036.8	-88.779
1037	-85.466
1037.2	-88.805
1037.4	-84.639
1037.6	-82.219
1037.8	-80.704
1038	-77.342
1038.2	-80.38
1038.4	-80.228
1038.6	-82.773
1038.8	-80.836
1039	-82.908
1039.2	-89.159
1039.4	-88.732
1039.5	-92.623
1039.7	-95.723
1039.9	-99.003
1040.1	-100.192
1040.3	-97.573
1040.5	-100.582
1040.7	-100.469
1040.9	-101.083
1041.1	-101.801
1041.3	-98.243
1041.5	-95.672
1041.7	-91.864
1041.9	-90.17
1042.1	-90.962
1042.3	-95.195
1042.5	-94.619
1042.7	-91.384
1042.9	-91.015
1043.1	-90.922
1043.3	-100.549
1043.5	-97.638
1043.7	-100.303
1043.8	-104.496
1044	-107.057
1044.2	-105.228
1044.4	-109.966
1044.6	-106.903
1044.8	-106.63
1045	-107.568
1045.2	-104.406
