Data from led_USB4H112691__8__11-29-14-538.txt Node

Date: Tue Dec 17 11:29:14 CET 2024
User: Etudiants TP
Spectrometer: USB4H11269
Trigger mode: 4
Integration Time (sec): 1.000000E0
Scans to average: 1
Electric dark correction enabled: true
Nonlinearity correction enabled: false
Boxcar width: 0
XAxis mode: Wavelengths
Number of Pixels in Spectrum: 3648
>>>>>Begin Spectral Data<<<<<
286.377	-1584.79
286.631	-1584.79
286.884	-1584.79
287.138	-1631.89
287.391	-1691.28
287.644	-833.18
287.896	-499.36
288.149	702.79
288.401	362.83
288.653	-487.08
288.905	-405.16
289.157	872.78
289.409	221.52
289.661	-415.4
289.912	-751.26
290.163	473.42
290.414	758.09
290.665	-706.21
290.916	-538.27
291.166	444.75
291.417	1026.37
291.667	-593.57
291.917	-214.7
292.167	522.57
292.417	350.54
292.666	-652.96
292.916	-595.62
293.165	430.41
293.414	643.4
293.663	-927.39
293.912	-786.08
294.16	805.19
294.408	719.18
294.657	-788.13
294.905	-358.05
295.153	592.2
295.4	551.24
295.648	-757.41
295.895	-741.02
296.143	-46.76
296.39	747.85
296.637	-638.62
296.884	-726.69
297.13	538.96
297.377	778.57
297.623	-554.66
297.869	-267.94
298.115	622.92
298.361	706.89
298.606	-732.83
298.852	-607.91
299.097	328.02
299.342	913.74
299.587	-347.81
299.832	-564.9
300.077	684.36
300.322	534.86
300.566	-702.11
300.81	-431.78
301.054	446.8
301.298	782.67
301.542	-175.78
301.785	-300.71
302.029	919.88
302.272	606.54
302.515	-757.41
302.758	-622.24
303.001	762.19
303.244	682.31
303.486	-591.52
303.729	-847.52
303.971	966.98
304.213	772.43
304.455	-812.7
304.696	-390.82
304.938	268.63
305.179	682.31
305.421	-462.5
305.662	-468.64
305.903	305.49
306.143	330.06
306.384	-333.48
306.625	-538.27
306.865	428.37
307.105	168.27
307.345	-493.22
307.585	-554.66
307.825	2.39
308.064	706.89
308.304	-597.67
308.543	-861.85
308.782	495.95
309.021	743.75
309.26	-374.44
309.499	-480.93
309.737	923.98
309.976	780.62
310.214	-763.55
310.452	-616.1
310.69	1108.29
310.928	125.27
311.165	-614.05
311.403	-589.47
311.64	895.3
311.878	563.53
312.115	-519.84
312.351	-532.13
312.588	334.16
312.825	948.55
313.061	-693.92
313.298	-30.38
313.534	278.87
313.77	833.86
314.006	-636.58
314.241	-591.52
314.477	641.36
314.713	1091.91
314.948	-532.13
315.183	166.23
315.418	784.71
315.653	502.09
315.888	-710.3
316.122	-446.12
316.357	295.25
316.591	936.26
316.825	-542.37
317.059	-542.37
317.293	919.88
317.527	366.93
317.76	-579.23
317.994	-429.73
318.227	651.6
318.46	979.27
318.693	-661.15
318.926	-480.93
319.159	41.3
319.391	547.15
319.624	-751.26
319.856	-493.22
320.088	690.51
320.321	645.45
320.552	-345.77
320.784	-626.34
321.016	745.8
321.247	-13.99
321.479	-386.72
321.71	-333.48
321.941	-165.54
322.172	1128.77
322.403	-644.77
322.633	-382.63
322.864	831.82
323.094	178.51
323.325	-32.43
323.555	-532.13
323.785	98.64
324.014	231.76
324.244	-489.12
324.474	-300.71
324.703	928.07
324.933	725.32
325.162	-429.73
325.391	-816.8
325.62	-132.78
325.848	878.92
326.077	-560.8
326.306	-378.53
326.534	717.13
326.762	1007.94
326.99	-644.77
327.218	-284.33
327.446	831.82
327.674	22.87
327.901	-648.86
328.129	-618.15
328.356	715.08
328.583	133.46
328.81	-644.77
329.037	-415.4
329.264	356.69
329.491	799.05
329.717	-452.26
329.944	-681.63
330.17	411.98
330.396	78.16
330.622	-722.59
330.848	-448.16
331.074	391.5
331.299	1370.43
331.525	-671.39
331.75	-552.61
331.975	928.07
332.201	182.61
332.426	-929.44
332.65	-652.96
332.875	-210.6
333.1	461.13
333.324	-724.64
333.549	-644.77
333.773	289.1
333.997	411.98
334.221	-493.22
334.445	-579.23
334.668	600.4
334.892	1091.91
335.116	-329.38
335.339	-601.76
335.562	-67.24
335.785	366.93
336.008	-331.43
336.231	-587.43
336.454	-136.87
336.676	969.03
336.899	-538.27
337.121	-364.2
337.343	-1.71
337.566	586.06
337.788	-509.6
338.009	-689.82
338.231	-26.28
338.453	389.46
338.674	3066.15
338.896	-466.6
339.117	-42.67
339.338	977.22
339.559	-636.58
339.78	-505.51
340.001	-26.28
340.222	823.62
340.442	-644.77
340.663	-249.51
340.883	620.88
341.103	332.11
341.323	-579.23
341.543	-392.87
341.763	934.22
341.983	244.05
342.202	-695.97
342.422	-669.34
342.641	1134.92
342.861	387.41
343.08	-95.91
343.299	-726.69
343.518	616.78
343.736	624.97
343.955	-667.3
344.174	-657.06
344.392	743.75
344.61	131.41
344.829	-691.87
345.047	-577.19
345.265	569.68
345.483	799.05
345.7	-644.77
345.918	-183.98
346.136	55.64
346.353	790.86
346.57	-634.53
346.788	-757.41
347.005	334.16
347.222	-9.9
347.438	-145.06
347.655	-493.22
347.872	20.82
348.088	1057.09
348.305	-308.9
348.521	-558.75
348.737	84.31
348.953	977.22
349.169	-173.74
349.385	-456.36
349.601	389.46
349.817	-108.2
350.032	-110.25
350.248	-349.86
350.463	1124.68
350.678	-329.38
350.893	-634.53
351.108	-657.06
351.323	112.98
351.538	723.27
351.753	-657.06
351.967	-669.34
352.182	684.36
352.396	170.32
352.61	-644.77
352.824	-554.66
353.038	477.52
353.252	817.48
353.466	-427.68
353.68	-566.95
353.894	397.65
354.107	129.36
354.32	-439.97
354.534	-607.91
354.747	575.82
354.96	-77.48
355.173	-390.82
355.386	-714.4
355.599	469.33
355.811	184.66
356.024	-636.58
356.236	-431.78
356.449	258.39
356.661	215.38
356.873	-749.22
357.085	-784.03
357.297	620.88
357.509	596.3
357.721	-446.12
357.933	-534.18
358.144	217.43
358.356	158.03
358.567	-323.24
358.778	-683.68
358.989	915.78
359.2	115.03
359.411	-509.6
359.622	-341.67
359.833	407.89
360.044	297.3
360.254	-507.55
360.465	-706.21
360.675	360.78
360.885	489.81
361.096	-743.07
361.306	-454.31
361.516	186.71
361.726	518.48
361.935	-784.03
362.145	-530.08
362.355	452.94
362.564	428.37
362.774	-720.54
362.983	-790.17
363.192	821.58
363.401	112.98
363.61	-661.15
363.819	-325.29
364.028	276.82
364.237	940.36
364.445	-571.04
364.654	-345.77
364.862	321.87
365.071	252.24
365.279	-485.03
365.487	-642.72
365.695	575.82
365.903	366.93
366.111	-595.62
366.319	-513.7
366.527	600.4
366.734	190.8
366.942	-396.96
367.149	-679.58
367.357	-603.81
367.564	1018.18
367.771	-525.99
367.978	-616.1
368.185	100.69
368.392	227.67
368.599	-292.52
368.806	-519.84
369.013	-122.54
369.219	346.45
369.426	-824.99
369.632	-274.09
369.838	1186.12
370.044	604.49
370.251	-515.75
370.457	-540.32
370.663	827.72
370.868	338.26
371.074	-560.8
371.28	-616.1
371.485	-136.87
371.691	727.37
371.896	-650.91
372.102	-685.73
372.307	1106.24
372.512	772.43
372.717	-732.83
372.922	-153.26
373.127	26.96
373.332	360.78
373.537	-456.36
373.741	-583.33
373.946	452.94
374.151	289.1
374.355	-765.6
374.559	-511.65
374.764	102.74
374.968	-423.59
375.172	-546.47
375.376	-235.18
375.58	495.95
375.784	-50.86
375.987	-616.1
376.191	-466.6
376.395	123.22
376.598	141.65
376.802	-726.69
377.005	-374.44
377.208	149.84
377.412	96.6
377.615	-849.57
377.818	-702.11
378.021	147.8
378.224	-71.34
378.426	-513.7
378.629	-800.41
378.832	698.7
379.034	545.1
379.237	-833.18
379.439	-820.89
379.642	678.22
379.844	485.71
380.046	-847.52
380.248	-724.64
380.45	-153.26
380.652	-120.49
380.854	-476.84
381.056	-624.29
381.258	192.85
381.459	452.94
381.661	-712.35
381.862	-341.67
382.064	-75.43
382.265	190.8
382.467	-644.77
382.668	-489.12
382.869	661.84
383.07	420.17
383.271	-478.88
383.472	-618.15
383.673	682.31
383.874	407.89
384.074	-495.27
384.275	-691.87
384.476	553.29
384.676	1081.67
384.876	-759.46
385.077	-587.43
385.277	700.75
385.477	864.58
385.677	-652.96
385.878	-368.29
386.078	201.04
386.278	205.14
386.477	-235.18
386.677	-202.41
386.877	543.05
387.077	715.08
387.276	-366.25
387.476	-487.08
387.675	215.38
387.875	774.47
388.074	-710.3
388.273	-472.74
388.472	862.54
388.671	-177.83
388.87	-646.82
389.069	-212.65
389.268	-239.27
389.467	2.39
389.666	-773.79
389.865	-304.81
390.063	489.81
390.262	670.03
390.461	-573.09
390.659	-644.77
390.857	616.78
391.056	704.84
391.254	-636.58
391.452	-612
391.65	780.62
391.849	538.96
392.047	-386.72
392.245	-286.37
392.442	248.15
392.64	551.24
392.838	-235.18
393.036	-444.07
393.233	258.39
393.431	289.1
393.629	-808.61
393.826	-501.41
394.023	348.5
394.221	-206.5
394.418	-396.96
394.615	-206.5
394.812	-122.54
395.01	698.7
395.207	-612
395.404	-607.91
395.601	870.73
395.797	385.36
395.994	-714.4
396.191	-478.88
396.388	198.99
396.584	600.4
396.781	-335.53
396.977	72.02
397.174	637.26
397.37	2.39
397.567	-413.35
397.763	-618.15
397.959	325.97
398.155	352.59
398.352	-429.73
398.548	-218.79
398.744	493.9
398.94	397.65
399.136	-775.84
399.331	-290.47
399.527	291.15
399.723	323.92
399.919	-333.48
400.114	-472.74
400.31	178.51
400.505	565.58
400.701	-433.83
400.896	-585.38
401.092	182.61
401.287	450.89
401.482	-636.58
401.678	-370.34
401.873	653.64
402.068	692.55
402.263	-419.49
402.458	-489.12
402.653	110.93
402.848	563.53
403.043	-431.78
403.237	-591.52
403.432	100.69
403.627	-235.18
403.822	-757.41
404.016	-497.32
404.211	137.56
404.405	674.12
404.6	-183.98
404.794	-267.94
404.989	584.01
405.183	145.75
405.377	-186.02
405.571	-112.3
405.766	524.62
405.96	264.53
406.154	-466.6
406.348	-370.34
406.542	551.24
406.736	522.57
406.93	-554.66
407.124	-317.09
407.318	315.73
407.511	448.85
407.705	-247.46
407.899	-523.94
408.092	571.72
408.286	395.6
408.48	-575.14
408.673	-521.89
408.867	26.96
409.06	440.65
409.253	-265.89
409.447	-339.62
409.64	735.56
409.833	561.48
410.026	-317.09
410.22	-259.75
410.413	749.9
410.606	495.95
410.799	-616.1
410.992	-362.15
411.185	317.78
411.378	1036.61
411.571	-304.81
411.764	-333.48
411.956	764.23
412.149	579.92
412.342	-46.76
412.534	-218.79
412.727	702.79
412.92	526.67
413.112	-288.42
413.305	-69.29
413.497	977.22
413.69	784.71
413.882	-226.98
414.075	-65.19
414.267	637.26
414.459	500.05
414.652	-390.82
414.844	-325.29
415.036	629.07
415.228	897.35
415.42	59.73
415.612	-243.37
415.804	1009.99
415.997	743.75
416.188	-1.71
416.38	-79.53
416.572	309.58
416.764	903.5
416.956	-315.05
417.148	-179.88
417.34	522.57
417.531	168.27
417.723	-210.6
417.915	-132.78
418.107	375.12
418.298	731.47
418.49	-77.48
418.681	-11.95
418.873	1067.33
419.064	817.48
419.256	-7.85
419.447	-145.06
419.639	848.2
419.83	1255.75
420.021	94.55
420.213	0.34
420.404	745.8
420.595	813.38
420.786	104.79
420.978	158.03
421.169	981.32
421.36	682.31
421.551	51.54
421.742	-61.1
421.933	1339.71
422.124	1028.42
422.315	170.32
422.506	76.12
422.697	1087.81
422.888	751.95
423.079	438.61
423.27	139.6
423.461	897.35
423.652	764.23
423.842	29.01
424.033	305.49
424.224	1204.55
424.415	1618.24
424.605	325.97
424.796	258.39
424.987	1204.55
425.177	1153.35
425.368	80.21
425.558	78.16
425.749	981.32
425.939	993.61
426.13	698.7
426.32	543.05
426.511	934.22
426.701	1014.09
426.892	434.51
427.082	407.89
427.272	1030.47
427.463	1325.38
427.653	543.05
427.843	727.37
428.034	1919.29
428.224	1581.37
428.414	323.92
428.604	727.37
428.795	1640.76
428.985	1743.16
429.175	1009.99
429.365	938.31
429.555	1632.57
429.745	1747.26
429.935	821.58
430.126	1048.9
430.316	1829.18
430.506	1978.68
430.696	1044.81
430.886	1186.12
431.076	1988.92
431.266	1806.65
431.456	1415.49
431.645	1136.96
431.835	1775.93
432.025	2074.93
432.215	1020.23
432.405	1528.13
432.595	2134.32
432.785	2060.6
432.975	1395.01
433.164	1208.64
433.354	1902.9
433.544	2396.46
433.734	1374.53
433.923	1759.55
434.113	2240.82
434.303	2486.58
434.493	1835.32
434.682	1755.45
434.872	2867.5
435.062	2359.6
435.251	2005.3
435.441	1880.38
435.631	3064.1
435.82	2953.51
436.01	2038.07
436.2	2179.38
436.389	2812.2
436.579	3496.22
436.768	2705.71
436.958	2801.96
437.147	3139.88
437.337	3547.42
437.527	2726.19
437.716	2574.64
437.906	3844.38
438.095	3373.35
438.285	3000.62
438.474	3115.3
438.664	4135.19
438.853	4094.23
439.043	3340.58
439.232	3041.57
439.422	4120.85
439.611	4245.78
439.8	3346.72
439.99	3928.35
440.179	4753.68
440.369	4720.91
440.558	3481.89
440.748	3942.68
440.937	4614.41
441.126	4608.27
441.316	4286.74
441.505	4327.7
441.695	5277.96
441.884	5794.04
442.073	4573.46
442.263	4294.93
442.452	5263.62
442.642	5703.93
442.831	4747.53
443.02	5308.68
443.21	6353.14
443.399	6846.7
443.588	5378.31
443.778	5566.72
443.967	6740.21
444.156	6502.64
444.346	5507.33
444.535	5665.02
444.725	7112.94
444.914	6519.03
445.103	5908.73
445.293	6129.91
445.482	7258.34
445.671	7155.94
445.861	6469.87
446.05	6539.51
446.239	7379.17
446.429	7076.07
446.618	6451.44
446.807	6584.56
446.997	7692.51
447.186	7678.18
447.376	6883.56
447.565	7051.5
447.754	8120.54
447.944	7950.56
448.133	6803.69
448.322	6654.19
448.512	7784.67
448.701	8186.07
448.891	6863.08
449.08	7055.59
449.269	7330.02
449.459	7518.43
449.648	6785.26
449.838	6856.94
450.027	7358.69
450.217	7565.54
450.406	6592.75
450.595	7108.84
450.785	7753.95
450.974	7704.8
451.164	6945
451.353	6721.77
451.543	7663.84
451.732	8265.94
451.922	6588.66
452.111	6639.86
452.301	7278.82
452.49	6924.52
452.68	6281.46
452.869	7176.42
453.059	7151.85
453.249	7766.24
453.438	6230.26
453.628	6578.42
453.817	7342.31
454.007	7313.64
454.197	6095.1
454.386	6326.52
454.576	7547.11
454.765	7248.1
454.955	6482.16
455.145	6416.63
455.334	7010.54
455.524	6705.39
455.714	6490.35
455.904	6158.58
456.093	7598.31
456.283	7157.99
456.473	6076.66
456.663	6148.34
456.852	6916.33
457.042	6920.43
457.232	6125.82
457.422	6662.38
457.612	6740.21
457.802	7416.04
457.991	5591.3
458.181	5957.88
458.371	6906.09
458.561	6924.52
458.751	6170.87
458.941	6011.13
459.131	6732.01
459.321	6422.77
459.511	5998.84
459.701	5923.07
459.891	6557.94
460.081	6514.93
460.271	5781.76
460.461	5636.35
460.651	7266.53
460.841	7356.65
461.032	5777.66
461.222	5945.59
461.412	6490.35
461.602	7690.46
461.792	5628.16
461.983	5808.38
462.173	6832.37
462.363	7473.38
462.554	5886.2
462.744	5730.56
462.934	7088.36
463.125	6701.3
463.315	5755.13
463.505	5959.93
463.696	6867.18
463.886	6484.21
464.077	5728.51
464.267	5683.45
464.458	7194.86
464.648	6217.97
464.839	6015.23
465.03	5912.83
465.22	6359.28
465.411	6867.18
465.601	5701.89
465.792	5726.46
465.983	6492.4
466.174	6856.94
466.364	5509.38
466.555	5687.55
466.746	6871.28
466.937	6441.2
467.128	5785.85
467.319	5832.96
467.51	7026.92
467.701	7446.76
467.891	5894.4
468.082	5562.62
468.274	6529.27
468.465	6142.2
468.656	6047.99
468.847	5697.79
469.038	6428.92
469.229	6803.69
469.42	5896.44
469.612	5597.44
469.803	6959.34
469.994	6887.66
470.185	5937.4
470.377	5728.51
470.568	6818.03
470.76	6924.52
470.951	5988.6
471.142	6107.38
471.334	7047.4
471.526	6883.56
471.717	6441.2
471.909	5955.83
472.1	6875.37
472.292	6899.95
472.484	5964.03
472.675	6103.29
472.867	7082.22
473.059	7629.02
473.251	6252.79
473.443	6131.96
473.635	7196.9
473.826	7397.6
474.018	6209.78
474.21	6568.18
474.402	7416.04
474.595	7741.66
474.787	6668.53
474.979	6572.27
475.171	7153.9
475.363	6945
475.555	6269.17
475.748	6674.67
475.94	7786.72
476.132	7457
476.325	6629.62
476.517	7227.62
476.71	8284.37
476.902	7377.12
477.095	6906.09
477.287	7311.59
477.48	8136.92
477.673	7944.41
477.865	7221.48
478.058	7022.83
478.251	8171.74
478.444	8452.31
478.636	7301.35
478.829	7084.27
479.022	8128.73
479.215	8466.64
479.408	7592.16
479.601	8073.43
479.794	8224.98
479.988	8063.19
480.181	7749.86
480.374	7624.93
480.567	8401.11
480.76	9160.91
480.954	7823.58
481.147	7391.46
481.341	8440.02
481.534	8489.17
481.728	8065.24
481.921	8147.16
482.115	9099.47
482.308	9326.79
482.502	7880.93
482.696	8110.3
482.89	9636.03
483.084	9091.27
483.277	8128.73
483.471	8345.81
483.665	9418.95
483.859	10119.35
484.053	8063.19
484.247	8235.22
484.442	9162.95
484.636	9115.85
484.83	8263.9
485.024	8589.52
485.219	9273.54
485.413	9064.65
485.608	8630.48
485.802	8816.85
485.997	10029.24
486.191	9464
486.386	8476.88
486.58	8794.32
486.775	9720
486.97	10086.59
487.165	8681.68
487.36	9087.18
487.555	10074.3
487.75	9652.42
487.945	9091.27
488.14	9005.26
488.335	9736.38
488.53	9707.71
488.725	8851.66
488.92	9234.63
489.116	10401.97
489.311	9992.38
489.507	9005.26
489.702	9636.03
489.898	10485.94
490.093	10025.15
490.289	9791.68
490.485	9435.33
490.68	9613.51
490.876	11014.32
491.072	9347.27
491.268	9595.07
491.464	10758.32
491.66	10502.33
491.856	9570.5
492.052	9869.5
492.248	10508.47
492.445	10682.55
492.641	9423.05
492.837	9693.38
493.034	10954.93
493.23	11102.38
493.427	10012.86
493.623	9828.54
493.82	10840.24
494.017	11401.38
494.214	9816.26
494.41	9668.8
494.607	10889.39
494.804	10340.54
495.001	10115.26
495.198	9914.56
495.395	11237.55
495.593	11110.57
495.79	9863.36
495.987	9889.98
496.184	10346.68
496.382	10965.17
496.579	9910.46
496.777	10057.92
496.974	11522.21
497.172	11198.63
497.37	10004.67
497.568	9912.51
497.766	11720.87
497.963	10889.39
498.161	9980.09
498.359	10229.95
498.558	11561.12
498.756	11393.19
498.954	10037.44
499.152	10465.46
499.351	11212.97
499.549	11225.26
499.747	10258.62
499.946	10129.59
500.145	10993.84
500.343	10897.58
500.542	10180.79
500.741	10246.33
500.94	11452.58
501.139	11442.34
501.338	10066.11
501.537	10475.7
501.736	11835.55
501.935	11081.9
502.134	10154.17
502.334	10291.38
502.533	11473.06
502.733	11393.19
502.932	10451.13
503.132	10219.71
503.331	11176.11
503.531	11608.23
503.731	10168.51
503.931	10252.47
504.131	10905.77
504.331	11569.32
504.531	10275
504.731	10451.13
504.931	11014.32
505.132	11552.93
505.332	10025.15
505.532	10293.43
505.733	11290.79
505.933	11700.39
506.134	10223.8
506.335	10086.59
506.536	10727.6
506.736	11464.87
506.937	10066.11
507.138	10203.32
507.34	11995.29
507.541	11073.71
507.742	10567.86
507.943	10070.2
508.145	11088.04
508.346	10655.92
508.548	10064.06
508.749	9984.19
508.951	10719.41
509.153	10971.31
509.354	10111.16
509.556	10203.32
509.758	11192.49
509.96	10907.82
510.163	10377.4
510.365	10279.1
510.567	10766.51
510.769	10875.06
510.972	9889.98
511.174	10647.73
511.377	10688.69
511.58	11901.09
511.782	10059.96
511.985	10072.25
512.188	11616.42
512.391	11231.4
512.594	9801.92
512.797	10070.2
513.001	11428.01
513.204	11653.28
513.407	10090.68
513.611	10059.96
513.814	11204.78
514.018	11309.22
514.222	9849.02
514.425	9957.57
514.629	11151.53
514.833	10672.31
515.037	10023.1
515.241	9642.18
515.445	10655.92
515.65	10361.02
515.854	9937.09
516.059	9955.52
516.263	11131.05
516.468	10809.52
516.672	9877.69
516.877	9916.61
517.082	10315.96
517.287	10606.77
517.492	9877.69
517.697	9752.77
517.902	10717.36
518.107	10201.27
518.313	9816.26
518.518	9664.71
518.724	10987.69
518.929	10461.37
519.135	9898.17
519.341	9361.61
519.547	10547.38
519.753	10479.8
519.959	9838.78
520.165	9498.82
520.371	10520.76
520.577	10928.3
520.784	9089.23
520.99	9580.74
521.197	10358.97
521.404	10369.21
521.61	9119.95
521.817	9167.05
522.024	10553.52
522.231	10008.76
522.438	8775.89
522.645	9752.77
522.853	9900.22
523.06	10422.45
523.268	9283.78
523.475	9244.87
523.683	10111.16
523.891	10223.8
524.098	8777.94
524.306	9058.51
524.514	10156.22
524.722	10006.72
524.931	8882.38
525.139	8884.43
525.347	9367.75
525.556	9742.53
525.764	9175.24
525.973	9081.03
526.182	9820.35
526.391	9435.33
526.6	8835.28
526.809	8718.54
527.018	9494.72
527.227	9730.24
527.436	8603.86
527.646	8601.81
527.855	9646.27
528.065	9212.1
528.275	8532.18
528.484	8227.03
528.694	9558.21
528.904	9369.8
529.114	8358.1
529.325	8526.04
529.535	8712.4
529.745	9636.03
529.956	8167.64
530.166	8169.69
530.377	9265.35
530.588	9734.34
530.799	8354.01
531.01	8012
531.221	9373.89
531.432	9316.55
531.643	8003.8
531.855	8427.73
532.066	9029.84
532.278	8896.72
532.489	7981.28
532.701	7706.85
532.913	9238.73
533.125	8894.67
533.337	7678.18
533.549	7753.95
533.762	8931.53
533.974	8024.28
534.186	7260.39
534.399	7614.69
534.612	8980.68
534.825	8503.51
535.037	7620.83
535.25	7715.04
535.464	8192.22
535.677	8814.8
535.89	7350.5
536.104	7655.65
536.317	8124.63
536.531	8194.26
536.744	7678.18
536.958	7291.11
537.172	8204.5
537.386	7743.71
537.6	7239.91
537.815	7108.84
538.029	8280.28
538.244	8296.66
538.458	6975.72
538.673	6936.81
538.888	8110.3
539.103	8423.64
539.318	7100.65
539.533	6775.02
539.748	7819.49
539.963	7526.63
540.179	6752.49
540.394	6697.2
540.61	7129.32
540.826	7487.72
541.042	6510.83
541.258	6691.06
541.474	8239.32
541.69	7680.22
541.906	6869.23
542.123	6547.7
542.339	7610.59
542.556	7192.81
542.773	6498.55
542.99	6588.66
543.207	7309.54
543.424	7074.03
543.641	6328.56
543.858	6691.06
544.076	6922.48
544.293	6754.54
544.511	6183.16
544.729	6236.41
544.947	6945
545.165	7002.35
545.383	6119.67
545.601	6068.47
545.819	7069.93
546.038	6891.76
546.256	6170.87
546.475	5896.44
546.694	7866.59
546.913	7327.97
547.132	6447.35
547.351	5990.65
547.57	6390
547.79	6404.34
548.009	5925.11
548.229	5724.41
548.449	6449.39
548.668	7114.98
548.888	5912.83
549.109	5775.61
549.329	6973.67
549.549	6945
549.77	5757.18
549.99	5736.7
550.211	6824.17
550.432	7080.17
550.653	5474.56
550.874	5712.13
551.095	7125.22
551.316	6240.5
551.538	5257.48
551.759	5505.28
551.981	6060.28
552.203	6537.46
552.424	5212.42
552.646	5564.67
552.869	6039.8
553.091	6115.58
553.313	5484.8
553.536	5318.92
553.758	6379.76
553.981	6060.28
554.204	5249.29
554.427	5247.24
554.65	6287.61
554.873	5642.5
555.097	4772.11
555.32	5077.26
555.544	6254.84
555.768	6121.72
555.992	4909.32
556.216	4886.79
556.44	5515.52
556.664	6177.02
556.888	5497.09
557.113	4786.44
557.337	6576.37
557.562	6287.61
557.787	4778.25
558.012	4921.61
558.237	5728.51
558.462	5591.3
558.688	5040.39
558.913	4823.31
559.139	5282.05
559.365	5882.11
559.591	4718.86
559.817	4806.92
560.043	5914.88
560.269	6064.38
560.496	5058.82
560.722	4591.89
560.949	6050.04
561.176	5097.74
561.403	4602.13
561.63	4669.71
561.857	4978.95
562.084	5013.77
562.312	4438.29
562.539	4659.47
562.767	6086.9
562.995	5101.83
563.223	4550.93
563.451	4589.84
563.679	5130.5
563.908	5347.59
564.136	4469.01
564.365	4868.36
564.594	4860.17
564.823	6449.39
565.052	4493.58
565.281	4155.67
565.51	5304.58
565.74	5124.36
565.969	4057.37
566.199	4520.21
566.429	5241.09
566.659	5384.45
566.889	4172.05
567.119	4249.88
567.35	5597.44
567.58	5452.03
567.811	4485.39
568.042	4323.6
568.273	4929.8
568.504	5384.45
568.735	4270.36
568.966	4321.56
569.198	4843.79
569.43	5409.03
569.661	4202.77
569.893	4462.87
570.125	5650.69
570.358	5224.71
570.59	4124.95
570.822	3995.93
571.055	5210.37
571.288	5251.33
571.521	3946.78
571.754	3954.97
571.987	5484.8
572.22	4819.21
572.454	4059.42
572.687	4049.18
572.921	4415.76
573.155	4890.89
573.389	4595.98
573.623	4180.25
573.858	4598.03
574.092	5167.37
574.327	4182.29
574.561	4239.64
574.796	4305.17
575.031	4989.19
575.266	3801.37
575.502	4000.02
575.737	5118.22
575.973	4757.77
576.209	3930.39
576.445	3997.98
576.681	4507.92
576.917	4768.01
577.153	3754.27
577.39	3873.05
577.626	4651.28
577.863	4569.36
578.1	3660.06
578.337	3963.16
578.574	4589.84
578.812	4917.51
579.049	3946.78
579.287	3705.12
579.525	4813.07
579.763	4722.96
580.001	3512.61
580.239	3756.32
580.478	5148.93
580.716	4655.37
580.955	3705.12
581.194	3789.08
581.433	4796.68
581.672	4528.4
581.911	3588.38
582.151	3457.31
582.39	4292.88
582.63	4958.47
582.87	3574.05
583.11	3545.38
583.35	3909.91
583.591	4483.34
583.831	3856.67
584.072	4026.65
584.313	4450.58
584.554	4382.99
584.795	3688.73
585.036	3840.28
585.277	5128.46
585.519	4745.48
585.761	3287.33
586.003	3494.18
586.245	4573.46
586.487	4919.56
586.729	3823.9
586.972	3639.58
587.215	5253.38
587.457	3987.74
587.7	3713.31
587.944	3672.35
588.187	4167.96
588.43	4055.32
588.674	3496.22
588.918	3332.39
589.162	4598.03
589.406	3854.62
589.65	3262.76
589.894	4008.22
590.139	4364.56
590.384	4632.85
590.629	3258.66
590.874	3238.18
591.119	3934.49
591.364	4368.66
591.61	3223.84
591.855	3172.64
592.101	4950.28
592.347	4393.23
592.593	3275.04
592.84	3518.75
593.086	4802.83
593.333	3744.03
593.58	3019.05
593.827	2988.33
594.074	4106.52
594.321	3860.76
594.568	3139.88
594.816	2930.98
595.064	4127
595.312	3885.34
595.56	3150.12
595.808	3363.11
596.057	4370.71
596.305	3924.25
596.554	2777.39
596.803	3172.64
597.052	4190.49
597.301	4403.47
597.551	2838.83
597.8	3279.14
598.05	4024.6
598.3	3762.46
598.55	2787.63
598.8	2851.11
599.051	3346.72
599.301	3766.56
599.552	2634.03
599.803	3227.94
600.054	4133.14
600.305	3733.79
600.556	2996.52
600.808	2918.7
601.06	3643.68
601.312	3916.06
601.564	3115.3
601.816	2623.79
602.068	4253.97
602.321	3875.1
602.574	2828.59
602.827	2507.06
603.08	3719.45
603.333	3836.19
603.587	2746.67
603.84	2801.96
604.094	3827.99
604.348	3320.1
604.602	2595.12
604.856	2797.87
605.111	3868.95
605.365	3746.08
605.62	2746.67
605.875	2554.16
606.13	3664.16
606.386	3496.22
606.641	2515.25
606.897	2496.82
607.153	3350.82
607.409	3813.66
607.665	2287.92
607.921	2402.61
608.178	3301.67
608.435	3516.7
608.692	2554.16
608.949	2603.31
609.206	3918.11
609.463	3557.66
609.721	2486.58
609.979	2718
610.237	3393.83
610.495	3856.67
610.753	2738.48
611.012	2701.61
611.27	3762.46
611.529	3393.83
611.788	2517.29
612.047	2296.11
612.307	2920.74
612.566	3518.75
612.826	2279.73
613.086	2355.51
613.346	2724.14
613.606	3434.78
613.867	2382.13
614.127	2625.84
614.388	2937.13
614.649	3580.19
614.91	2197.81
615.172	2691.37
615.433	3180.84
615.695	3066.15
615.957	2347.31
616.219	2361.65
616.481	3598.62
616.743	2851.11
617.006	1990.97
617.269	2451.76
617.532	3518.75
617.795	3332.39
618.058	2289.97
618.322	2459.95
618.586	3189.03
618.849	2779.43
619.114	2378.03
619.378	2134.32
619.642	3221.8
619.907	3373.35
620.172	2148.66
620.437	2246.96
620.702	3221.8
620.967	2922.79
621.233	2222.39
621.499	2101.56
621.765	2853.16
622.031	3182.88
622.297	1909.05
622.564	2224.44
622.83	2808.11
623.097	3567.9
623.364	2240.82
623.631	2410.8
623.899	3135.78
624.166	3205.41
624.434	2054.45
624.702	1894.71
624.97	3211.56
625.239	2836.78
625.507	1960.25
625.776	2138.42
626.045	2582.83
626.314	2918.7
626.584	2013.49
626.853	1882.42
627.123	2795.82
627.393	2287.92
627.663	1863.99
627.933	1890.62
628.204	3002.66
628.474	2869.55
628.745	1657.15
629.016	2126.13
629.287	2763.05
629.559	2631.98
629.83	1681.72
630.102	1872.18
630.374	2472.24
630.646	3303.71
630.919	1829.18
631.191	2136.37
631.464	2550.06
631.737	2308.4
632.01	1694.01
632.284	1737.02
632.557	3090.73
632.831	2849.07
633.105	1546.56
633.379	1737.02
633.654	2261.3
633.928	2701.61
634.203	1761.59
634.478	1575.23
634.753	2513.2
635.028	2640.17
635.304	1980.73
635.58	1739.07
635.856	2449.71
636.132	2339.12
636.408	1589.57
636.685	1634.62
636.961	2402.61
637.238	2392.37
637.515	1648.96
637.793	1378.62
638.07	2887.98
638.348	2392.37
638.626	1620.28
638.904	1882.42
639.182	1810.75
639.461	1911.1
639.74	1517.89
640.019	1734.97
640.298	1706.3
640.577	2265.39
640.857	1397.06
641.136	1530.17
641.416	2181.43
641.696	2779.43
641.977	1534.27
642.257	1616.19
642.538	2330.93
642.819	2963.75
643.1	1280.32
643.382	1096
643.663	2443.57
643.945	2263.35
644.227	1513.79
644.509	1177.92
644.792	2761
645.074	2173.24
645.357	1329.47
645.64	1050.95
645.923	2117.94
646.207	2255.15
646.49	1329.47
646.774	1108.29
647.058	2091.32
647.342	2314.55
647.627	1083.72
647.911	993.61
648.196	2427.18
648.481	2443.57
648.767	1151.3
649.052	1173.83
649.338	1855.8
649.624	1825.08
649.91	946.5
650.196	1083.72
650.483	2222.39
650.77	2468.14
651.057	1354.05
651.344	1382.72
651.631	2009.4
651.919	1689.92
652.207	1151.3
652.495	1200.45
652.783	2163
653.071	2230.58
653.36	917.83
653.649	1077.57
653.938	1886.52
654.227	2189.62
654.517	1225.03
654.806	985.41
655.096	1614.14
655.387	2132.28
655.677	1091.91
655.968	989.51
656.258	1640.76
656.549	2292.02
656.841	1225.03
657.132	1059.14
657.424	1845.56
657.716	2160.95
658.008	1055.05
658.3	878.92
658.592	1972.54
658.885	2083.13
659.178	848.2
659.471	667.98
659.765	1327.43
660.058	1855.8
660.352	854.34
660.646	797
660.94	2271.54
661.235	1884.47
661.53	1192.26
661.824	538.96
662.12	1741.11
662.415	1323.33
662.711	729.42
663.006	948.55
663.302	1356.1
663.599	1362.24
663.895	663.88
664.192	962.89
664.489	2040.12
664.786	1947.96
665.083	602.44
665.381	764.23
665.678	1497.41
665.976	1759.55
666.275	512.33
666.573	880.97
666.872	1399.1
667.171	1689.92
667.47	506.19
667.769	534.86
668.069	1993.01
668.368	1677.63
668.668	483.66
668.969	366.93
669.269	1450.3
669.57	1206.59
669.871	616.78
670.172	696.65
670.473	1870.14
670.775	2021.69
671.077	526.67
671.379	751.95
671.681	1816.89
671.983	1550.65
672.286	448.85
672.589	602.44
672.892	1528.13
673.196	1628.48
673.499	436.56
673.803	526.67
674.107	1714.49
674.411	1485.12
674.716	618.83
675.021	762.19
675.326	1294.66
675.631	1722.68
675.936	301.39
676.242	543.05
676.548	1077.57
676.854	1933.62
677.16	178.51
677.467	504.14
677.774	1569.09
678.081	1177.92
678.388	682.31
678.696	719.18
679.004	1681.72
679.312	2007.35
679.62	438.61
679.928	723.27
680.237	1708.35
680.546	768.33
680.855	608.59
681.164	244.05
681.474	1345.86
681.784	1509.69
682.094	436.56
682.404	158.03
682.715	1771.83
683.026	962.89
683.337	309.58
683.648	639.31
683.959	1886.52
684.271	1575.23
684.583	424.27
684.895	123.22
685.208	1337.66
685.52	1466.69
685.833	526.67
686.146	309.58
686.46	1786.17
686.773	1233.22
687.087	364.88
687.401	235.86
687.716	1395.01
688.03	1448.26
688.345	76.12
688.66	348.5
688.975	1581.37
689.291	1452.35
689.607	805.19
689.923	299.34
690.239	1112.39
690.555	1608
690.872	264.53
691.189	-32.43
691.506	1268.03
691.824	1569.09
692.142	117.08
692.459	170.32
692.778	911.69
693.096	1243.46
693.415	624.97
693.734	342.35
694.053	1053
694.372	741.71
694.692	108.88
695.012	399.7
695.332	874.82
695.652	1093.96
695.973	452.94
696.294	155.99
696.615	1022.28
696.936	1550.65
697.258	-36.52
697.579	203.09
697.902	782.67
698.224	792.91
698.546	96.6
698.869	-71.34
699.192	778.57
699.516	1292.61
699.839	18.77
700.163	274.77
700.487	762.19
700.811	1640.76
701.136	-241.32
701.461	110.93
701.786	1112.39
702.111	1499.45
702.436	-73.39
702.762	270.67
703.088	1341.76
703.415	1706.3
703.741	340.3
704.068	-9.9
704.395	856.39
704.722	1255.75
705.05	-3.75
705.377	129.36
705.705	1053
706.034	913.74
706.362	-173.74
706.691	-181.93
707.02	1206.59
707.349	1220.93
707.679	22.87
708.009	-102.06
708.339	1087.81
708.669	936.26
709	61.78
709.33	-95.91
709.661	969.03
709.993	848.2
710.324	112.98
710.656	-42.67
710.988	1118.53
711.321	1210.69
711.653	-280.23
711.986	98.64
712.319	498
712.652	1130.82
712.986	248.15
713.32	-91.82
713.654	1327.43
713.988	1304.9
714.323	-48.81
714.658	2.39
714.993	840.01
715.328	778.57
715.664	108.88
716	301.39
716.336	1405.25
716.673	651.6
717.009	141.65
717.346	16.73
717.683	1497.41
718.021	913.74
718.359	-143.02
718.697	-46.76
719.035	645.45
719.373	620.88
719.712	149.84
720.051	-239.27
720.39	1216.83
720.73	901.45
721.07	-69.29
721.41	-116.39
721.75	1157.44
722.091	919.88
722.432	-128.68
722.773	203.09
723.114	766.28
723.456	797
723.798	-91.82
724.14	31.06
724.482	643.4
724.825	801.1
725.168	117.08
725.511	-104.11
725.855	739.66
726.198	696.65
726.542	-214.7
726.887	313.68
727.231	1184.07
727.576	473.42
727.921	47.44
728.266	-296.61
728.612	799.05
728.958	1077.57
729.304	-269.99
729.651	248.15
729.997	571.72
730.344	739.66
730.691	-175.78
731.039	160.08
731.387	741.71
731.735	520.53
732.083	-91.82
732.431	37.2
732.78	512.33
733.129	67.92
733.479	-251.56
733.828	117.08
734.178	485.71
734.528	190.8
734.879	-28.33
735.23	-306.85
735.581	1009.99
735.932	674.12
736.283	-265.89
736.635	-374.44
736.987	1153.35
737.34	1030.47
737.692	-253.61
738.045	-284.33
738.398	764.23
738.752	971.08
739.105	-378.53
739.459	72.02
739.814	1057.09
740.168	1083.72
740.523	-399.01
740.878	-59.05
741.233	692.55
741.589	1034.57
741.945	-159.4
742.301	-118.44
742.657	1102.15
743.014	434.51
743.371	-247.46
743.728	305.49
744.086	702.79
744.444	610.64
744.802	-362.15
745.16	-226.98
745.519	811.34
745.878	477.52
746.237	-341.67
746.597	-102.06
746.956	1079.62
747.316	731.47
747.677	-358.05
748.037	-151.21
748.398	538.96
748.759	756.04
749.121	4.44
749.482	12.63
749.844	219.47
750.207	285.01
750.569	-646.82
750.932	-177.83
751.295	1292.61
751.659	698.7
752.022	-337.57
752.386	-1.71
752.751	596.3
753.115	225.62
753.48	-341.67
753.845	-267.94
754.21	682.31
754.576	592.2
754.942	-472.74
755.308	-110.25
755.675	522.57
756.041	1214.79
756.409	-439.97
756.776	-165.54
757.144	1222.98
757.511	825.67
757.88	-296.61
758.248	-509.6
758.617	72.02
758.986	635.21
759.355	-210.6
759.725	-267.94
760.095	119.12
760.465	1046.85
760.836	-470.69
761.206	-294.57
761.577	993.61
761.949	280.91
762.32	-28.33
762.692	-456.36
763.065	432.46
763.437	242
763.81	-472.74
764.183	-169.64
764.556	1059.14
764.93	391.5
765.304	-87.72
765.678	-106.15
766.053	502.09
766.428	512.33
766.803	-489.12
767.178	-345.77
767.554	37.2
767.93	332.11
768.306	-399.01
768.683	-528.03
769.06	764.23
769.437	536.91
769.814	-499.36
770.192	-497.32
770.57	375.12
770.948	1278.27
771.327	-231.08
771.706	-534.18
772.085	624.97
772.464	964.93
772.844	-292.52
773.224	-550.56
773.605	55.64
773.985	317.78
774.366	-341.67
774.748	-54.95
775.129	784.71
775.511	651.6
775.893	-433.83
776.276	-269.99
776.658	729.42
777.041	514.38
777.425	-534.18
777.808	-423.59
778.192	371.02
778.576	878.92
778.961	-704.16
779.346	-517.79
779.731	713.03
780.116	92.5
780.502	-435.88
780.888	-427.68
781.274	452.94
781.661	264.53
782.048	-476.84
782.435	-575.14
782.823	395.6
783.21	620.88
783.598	-493.22
783.987	-358.05
784.376	784.71
784.765	264.53
785.154	-325.29
785.544	-439.97
785.933	635.21
786.324	239.95
786.714	-218.79
787.105	-579.23
787.496	493.9
787.888	170.32
788.279	-444.07
788.671	-495.27
789.064	436.56
789.456	553.29
789.849	-605.86
790.242	-585.38
790.636	223.57
791.03	651.6
791.424	-450.21
791.818	813.38
792.213	696.65
792.608	465.23
793.004	-206.5
793.399	-661.15
793.795	477.52
794.192	256.34
794.588	-478.88
794.985	-698.02
795.382	500.05
795.78	350.54
796.178	-429.73
796.576	-530.08
796.974	966.98
797.373	477.52
797.772	-550.56
798.172	-521.89
798.571	371.02
798.971	813.38
799.372	-419.49
799.772	-427.68
800.173	780.62
800.574	483.66
800.976	-466.6
801.378	-702.11
801.78	133.46
802.182	-136.87
802.585	-331.43
802.988	-571.04
803.392	207.19
803.795	119.12
804.199	-530.08
804.604	-345.77
805.008	553.29
805.413	866.63
805.819	-429.73
806.224	-673.44
806.63	440.65
807.036	616.78
807.443	-448.16
807.85	-421.54
808.257	510.29
808.664	434.51
809.072	-118.44
809.48	-235.18
809.889	670.03
810.297	590.16
810.706	-44.71
811.116	-515.75
811.526	276.82
811.936	278.87
812.346	-571.04
812.757	-525.99
813.167	346.45
813.579	235.86
813.99	-378.53
814.402	-476.84
814.814	1053
815.227	239.95
815.64	-726.69
816.053	-425.64
816.467	627.02
816.88	379.22
817.294	-241.32
817.709	-317.09
818.124	176.47
818.539	764.23
818.954	-315.05
819.37	-235.18
819.786	49.49
820.202	524.62
820.619	-833.18
821.036	-489.12
821.453	698.7
821.871	434.51
822.289	-505.51
822.707	-620.19
823.126	551.24
823.545	80.21
823.964	-517.79
824.384	-552.61
824.804	145.75
825.224	592.2
825.645	-253.61
826.065	-620.19
826.487	633.16
826.908	719.18
827.33	-341.67
827.752	-93.87
828.175	498
828.598	751.95
829.021	-102.06
829.444	217.43
829.868	457.04
830.292	160.08
830.717	-652.96
831.142	-546.47
831.567	170.32
831.992	268.63
832.418	-22.19
832.844	-612
833.27	383.31
833.697	268.63
834.124	-708.26
834.552	-616.1
834.979	958.79
835.408	504.14
835.836	-669.34
836.265	-452.26
836.694	186.71
837.123	612.68
837.553	-622.24
837.983	-663.2
838.413	565.58
838.844	594.25
839.275	-564.9
839.706	-280.23
840.138	1026.37
840.57	227.67
841.003	-454.31
841.435	-372.39
841.868	160.08
842.302	225.62
842.735	-374.44
843.169	-589.47
843.604	545.1
844.039	510.29
844.474	-657.06
844.909	-525.99
845.345	651.6
845.781	485.71
846.217	-538.27
846.654	-632.48
847.091	672.08
847.528	309.58
847.966	-599.71
848.404	-343.72
848.842	1042.76
849.281	-183.98
849.72	-423.59
850.16	-642.72
850.599	219.47
851.039	141.65
851.48	-143.02
851.921	-423.59
852.362	457.04
852.803	870.73
853.245	-769.69
853.687	-448.16
854.129	592.2
854.572	190.8
855.015	-628.39
855.459	-558.75
855.903	49.49
856.347	520.53
856.791	-382.63
857.236	-525.99
857.681	856.39
858.127	1159.49
858.572	-102.06
859.019	-511.65
859.465	604.49
859.912	381.26
860.359	-794.27
860.807	-599.71
861.255	237.91
861.703	633.16
862.151	-392.87
862.6	-36.52
863.05	543.05
863.499	160.08
863.949	-501.41
864.4	-636.58
864.85	956.74
865.301	608.59
865.752	-513.7
866.204	-456.36
866.656	211.28
867.109	782.67
867.561	-536.23
868.014	-231.08
868.468	616.78
868.921	674.12
869.376	-497.32
869.83	-528.03
870.285	479.57
870.74	158.03
871.195	-419.49
871.651	-411.3
872.107	905.54
872.564	203.09
873.021	-734.88
873.478	-710.3
873.936	682.31
874.394	551.24
874.852	-452.26
875.31	-366.25
875.769	391.5
876.229	979.27
876.688	-345.77
877.148	-399.01
877.609	239.95
878.069	170.32
878.531	-218.79
878.992	-634.53
879.454	313.68
879.916	399.7
880.378	-472.74
880.841	-487.08
881.304	-54.95
881.768	35.16
882.232	-597.67
882.696	-399.01
883.161	2.39
883.626	391.5
884.091	-495.27
884.557	-487.08
885.023	35.16
885.489	665.93
885.956	-734.88
886.423	-571.04
886.89	10.58
887.358	411.98
887.826	-579.23
888.295	-452.26
888.763	149.84
889.233	1034.57
889.702	-407.2
890.172	-536.23
890.642	250.19
891.113	209.23
891.584	-132.78
892.055	-462.5
892.527	616.78
892.999	813.38
893.472	-601.76
893.944	-390.82
894.417	405.84
894.891	151.89
895.365	-304.81
895.839	-374.44
896.314	469.33
896.789	-341.67
897.264	-478.88
897.74	-571.04
898.216	766.28
898.692	608.59
899.169	-681.63
899.646	-562.85
900.123	493.9
900.601	952.65
901.079	-607.91
901.558	-448.16
902.037	678.22
902.516	364.88
902.996	-728.74
903.476	-726.69
903.956	137.56
904.437	612.68
904.918	-616.1
905.399	-706.21
905.881	608.59
906.363	530.77
906.846	-650.91
907.329	-403.11
907.812	-59.05
908.296	477.52
908.78	-661.15
909.264	-691.87
909.749	137.56
910.234	747.85
910.719	-687.78
911.205	-235.18
911.691	-110.25
912.178	459.09
912.665	-89.77
913.152	-558.75
913.64	196.95
914.128	543.05
914.616	-566.95
915.105	-525.99
915.594	487.76
916.084	915.78
916.574	-489.12
917.064	-659.1
917.555	-46.76
918.046	512.33
918.537	-161.45
919.029	-808.61
919.521	184.66
920.013	915.78
920.506	-368.29
920.999	-683.68
921.493	692.55
921.987	190.8
922.481	-300.71
922.976	-528.03
923.471	225.62
923.967	403.79
924.462	-370.34
924.959	-472.74
925.455	491.85
925.952	391.5
926.449	-609.95
926.947	-489.12
927.445	301.39
927.944	264.53
928.442	-775.84
928.942	-689.82
929.441	801.1
929.941	-124.58
930.442	-497.32
930.942	-620.19
931.443	653.64
931.945	-32.43
932.447	-603.81
932.949	-566.95
933.451	201.04
933.954	201.04
934.458	-462.5
934.961	-605.86
935.465	69.97
935.97	59.73
936.475	-431.78
936.98	-669.34
937.486	-120.49
937.992	106.84
938.498	-497.32
939.005	-521.89
939.512	192.85
940.019	397.65
940.527	-435.88
941.035	-296.61
941.544	536.91
942.053	358.74
942.562	-267.94
943.072	-204.46
943.582	596.3
944.093	248.15
944.604	-685.73
945.115	-579.23
945.627	616.78
946.139	741.71
946.651	-571.04
947.164	-396.96
947.677	473.42
948.191	305.49
948.705	-693.92
949.219	-718.5
949.734	92.5
950.249	575.82
950.765	-599.71
951.281	-554.66
951.797	1382.72
952.314	665.93
952.831	-620.19
953.348	-771.74
953.866	522.57
954.384	96.6
954.903	-558.75
955.422	-743.07
955.941	248.15
956.461	321.87
956.981	-538.27
957.502	-419.49
958.023	547.15
958.544	348.5
959.066	-407.2
959.588	-698.02
960.11	51.54
960.633	715.08
961.156	-521.89
961.68	-577.19
962.204	710.99
962.729	-1.71
963.253	-689.82
963.779	4.44
964.304	498
964.83	706.89
965.357	-736.93
965.883	-511.65
966.411	360.78
966.938	538.96
967.466	-487.08
967.994	-773.79
968.523	149.84
969.052	835.91
969.582	-591.52
970.112	-577.19
970.642	31.06
971.173	723.27
971.704	-618.15
972.235	-487.08
972.767	493.9
973.3	309.58
973.832	-413.35
974.365	-798.37
974.899	420.17
975.433	428.37
975.967	-767.65
976.502	-306.85
977.037	366.93
977.572	780.62
978.108	-685.73
978.644	-851.61
979.181	1136.96
979.718	655.69
980.255	-888.48
980.793	-374.44
981.331	-304.81
981.87	698.7
982.409	-566.95
982.948	-403.11
983.488	297.3
984.028	700.75
984.569	-464.55
985.11	-554.66
985.651	651.6
986.193	526.67
986.735	-824.99
987.278	-667.3
987.821	-91.82
988.364	237.91
988.908	-390.82
989.452	-771.74
989.997	-417.44
990.542	299.34
991.088	-521.89
991.633	-149.16
992.18	194.9
992.726	-169.64
993.273	-534.18
993.821	-464.55
994.369	280.91
994.917	747.85
995.465	-743.07
996.014	-751.26
996.564	575.82
997.114	12.63
997.664	-333.48
998.215	-659.1
998.766	477.52
999.317	-83.63
999.869	-468.64
1000.421	-652.96
1000.974	641.36
1001.527	594.25
1002.081	-624.29
1002.635	-366.25
1003.189	391.5
1003.744	606.54
1004.299	-833.18
1004.854	-517.79
1005.41	698.7
1005.967	176.47
1006.523	-538.27
1007.081	-439.97
1007.638	432.46
1008.196	477.52
1008.755	-655.01
1009.313	-341.67
1009.873	575.82
1010.432	-38.57
1010.992	-407.2
1011.553	-470.69
1012.114	477.52
1012.675	-177.83
1013.237	-337.57
1013.799	-267.94
1014.361	526.67
1014.924	-202.41
1015.487	-763.55
1016.051	-556.71
1016.615	633.16
1017.18	366.93
1017.745	-659.1
1018.31	-218.79
1018.876	846.15
1019.442	389.46
1020.009	-456.36
1020.576	-816.8
1021.143	387.41
1021.711	610.64
1022.28	-552.61
1022.848	-528.03
1023.417	670.03
1023.987	258.39
1024.557	-618.15
1025.127	-659.1
1025.698	-38.57
1026.269	10.58
1026.841	-679.58
1027.413	-450.21
1027.985	178.51
1028.558	323.92
1029.131	-663.2
1029.705	-423.59
1030.279	389.46
1030.854	371.02
1031.429	-812.7
1032.004	-149.16
1032.58	528.72
1033.156	-104.11
1033.733	-706.21
1034.31	-714.4
1034.887	559.44
1035.465	643.4
1036.043	-861.85
1036.622	-556.71
1037.201	260.43
1037.781	600.4
1038.361	-607.91
1038.941	-767.65
1039.522	321.87
1040.103	788.81
1040.685	-724.64
1041.267	-292.52
1041.85	1110.34
1042.433	588.11
1043.016	-683.68
1043.6	-476.84
1044.184	-366.25
1044.769	420.17
1045.354	-609.95
1045.939	-773.79
1046.525	254.29
1047.111	387.41
1047.698	-362.15
1048.285	-755.36
1048.873	446.8
1049.461	-11.95
1050.049	-706.21
1050.638	-644.77
1051.228	26.96
1051.817	741.71
1052.407	-661.15
1052.998	-216.74
1053.589	506.19
1054.18	596.3
1054.772	-974.49
1055.365	-642.72
1055.957	393.55
1056.55	233.81
1057.144	-489.12
1057.738	-620.19
1058.333	201.04
1058.927	43.35
1059.523	-542.37
1060.118	-681.63
1060.715	-46.76
1061.311	543.05
1061.908	-655.01
1062.506	-464.55
1063.103	436.56
1063.702	-38.57
1064.3	-900.76
1064.9	-720.54
1065.499	854.34
1066.099	63.83
1066.7	-534.18
1067.301	-802.46
1067.902	780.62
1068.504	682.31
1069.106	-304.81
1069.709	-431.78
1070.312	719.18
1070.915	375.12
1071.519	-628.39
1072.123	-407.2
1072.728	561.48
1073.333	237.91
1073.939	-267.94
1074.545	-573.09
1075.152	485.71
1075.759	16.73
1076.366	-763.55
1076.974	-364.2
1077.582	231.76
1078.191	665.93
1078.8	-530.08
1079.41	-853.66
1080.02	389.46
1080.63	350.54
1081.241	-120.49
1081.852	-937.63
1082.464	383.31
1083.076	342.35
1083.689	-648.86
1084.302	-599.71
1084.915	643.4
1085.529	450.89
1086.144	-554.66
1086.759	-472.74
1087.374	-18.09
1087.99	262.48
1088.606	-669.34
1089.222	-525.99
1089.839	559.44
1090.457	141.65
1091.075	-548.51
1091.693	-863.9
1092.312	481.61
1092.931	766.28
1093.551	-636.58
1094.171	-349.86
1094.792	461.13
1095.413	137.56
1096.034	-612
1096.656	-587.43
1097.278	481.61
1097.901	252.24
1098.524	-689.82
1099.148	-353.96
1099.772	833.86
1100.397	321.87
1101.022	-716.45
1101.647	-675.49
1102.273	307.54
1102.899	592.2
1103.526	-1011.36
1104.153	-378.53
1104.781	567.63
1105.409	753.99
1106.038	-695.97
1106.667	-831.13
1107.296	166.23
1107.926	86.36
1108.556	-200.36
1109.187	-591.52
1109.818	252.24
1110.45	633.16
1111.082	-505.51
1111.715	-659.1
1112.348	319.82
1112.981	112.98
1113.615	-300.71
1114.25	-509.6
1114.885	211.28
1115.52	125.27
1116.156	-743.07
1116.792	-495.27
1117.428	442.7
1118.066	133.46
1118.703	-423.59
1119.341	-548.51
1119.98	618.83
1120.618	786.76
1121.258	-710.3
1121.898	-700.06
1122.538	403.79
1123.179	-147.11
1123.82	-390.82
1124.461	-505.51
1125.103	596.3
1125.746	102.74
1126.389	-315.05
1127.032	-671.39
1127.676	491.85
1128.32	723.27
1128.965	-536.23
1129.61	-390.82
1130.256	133.46
1130.902	723.27
1131.549	-648.86
1132.196	-644.77
1132.844	596.3
1133.491	612.68
1134.14	-558.75
1134.789	-571.04
1135.438	964.93
1136.088	172.37
1136.738	-755.36
1137.389	-724.64
1138.04	403.79
1138.692	895.3
1139.344	-677.54
1139.996	-741.02
1140.649	420.17
1141.303	584.01
1141.957	-472.74
1142.611	-581.28
1143.266	313.68
1143.921	354.64
1144.577	-573.09
1145.233	-493.22
1145.89	16.73
1146.547	481.61
1147.205	-749.22
1147.863	-470.69
1148.521	403.79
1149.18	629.07
1149.84	-767.65
1150.5	-702.11
1151.16	282.96
1151.821	592.2
1152.482	-562.85
1153.144	-208.55
1153.806	354.64
1154.469	354.64
1155.132	-798.37
1155.796	-519.84
1156.46	547.15
1157.124	938.31
1157.789	-685.73
1158.455	-685.73
1159.121	362.83
1159.787	-40.62
1160.454	-429.73
1161.121	-593.57
1161.789	125.27
1162.457	530.77
1163.126	-542.37
1163.795	-501.41
1164.465	338.26
1165.135	80.21
1165.806	-538.27
1166.477	-429.73
1167.148	-321.19
1167.82	450.89
1168.493	-851.61
1169.166	-405.16
1169.839	-48.81
1170.513	330.06
1171.187	-714.4
1171.862	-562.85
1172.537	293.2
1173.213	424.27
1173.889	-632.48
1174.566	-657.06
1175.243	717.13
1175.921	207.19
1176.599	-513.7
1177.278	-298.66
1177.957	-87.72
1178.636	731.47
1179.316	-315.05
1179.997	-853.66
1180.678	371.02
1181.359	612.68
1182.041	-726.69
1182.723	-800.41
1183.406	676.17
1184.089	-36.52
1184.773	-734.88
1185.457	-775.84
1186.142	141.65
1186.827	1145.16
1187.513	-722.59
1188.199	-243.37
1188.886	162.13
1189.573	340.3
1190.26	-485.03
1190.948	-612
1191.637	16.73
1192.326	160.08
1193.015	-800.41
1193.705	-775.84
1194.396	67.92
1195.087	244.05
1195.778	-401.06
1196.47	-681.63
1197.162	215.38
1197.855	428.37
1198.548	-593.57
1199.242	-915.1
1199.936	446.8
1200.631	518.48
1201.326	-857.76
1202.022	-693.92
1202.718	627.02
1203.415	358.74
1204.112	-870.05
1204.81	-542.37
1205.508	139.6
1206.206	883.02
1206.905	-612
1207.605	-769.69
1208.305	153.94
1209.005	313.68
1209.706	-784.03
1210.408	-671.39
1211.11	268.63
1211.812	350.54
1212.515	-562.85
1213.218	-585.38
1213.922	342.35
1214.627	190.8
1215.331	-511.65
1216.037	-538.27
1216.743	43.35
1217.449	362.83
1218.156	-505.51
1218.863	-542.37
1219.571	205.14
1220.279	694.6
1220.988	-730.78
1221.697	-644.77
1222.406	530.77
1223.117	108.88
1223.827	-509.6
1224.538	-530.08
1225.25	260.43
1225.962	342.35
1226.675	-951.96
1227.388	-399.01
1228.101	211.28
1228.815	-116.39
1229.53	-562.85
1230.245	-470.69
1230.961	311.63
1231.677	158.03
1232.393	-636.58
1233.11	-542.37
1233.828	985.41
1234.546	442.7
1235.264	-573.09
1235.983	-329.38
1236.702	1061.19
1237.422	282.96
1238.143	-304.81
1238.864	-681.63
1239.585	555.34
1240.307	-347.81
1241.029	-757.41
1241.752	-325.29
1242.476	584.01
1243.2	813.38
1243.924	-562.85
1244.649	-530.08
1245.374	610.64
1246.1	780.62
1246.826	-849.57
1247.553	-579.23
1248.28	479.57
1249.008	414.03
1249.737	-734.88
1250.465	-456.36
1251.195	452.94
1251.925	627.02
1252.655	-652.96
1253.386	-345.77
1254.117	149.84
1254.849	72.02
1255.581	-638.62
1256.314	-513.7
1257.047	751.95
1257.781	452.94
1258.515	-581.28
1259.25	-243.37
1259.985	196.95
1260.721	389.46
1261.457	-507.55
1262.194	-796.32
1262.931	223.57
1263.669	774.47
1264.407	-482.98
1265.146	-781.98
1265.885	289.1
1266.625	219.47
1267.365	-554.66
1268.106	-730.78
1268.847	342.35
1269.589	45.4
1270.331	-341.67
1271.074	-542.37
1271.817	350.54
1272.561	352.59
1273.305	-366.25
1274.05	-386.72
1274.795	334.16
1275.541	297.3
1276.287	-816.8
1277.034	-700.06
1277.781	12.63
1278.529	467.28
1279.277	-837.28
1280.026	-741.02
1280.775	776.52
1281.525	-497.32
1282.275	-908.96
1283.026	-231.08
1283.777	248.15
1284.529	428.37
1285.281	-587.43
1286.034	-784.03
1286.788	760.14
1287.541	389.46
1288.296	-890.53
1289.051	-419.49
1289.806	428.37
1290.562	502.09
1291.318	-698.02
1292.075	-538.27
1292.832	731.47
1293.59	829.77
1294.349	-747.17
1295.108	-540.32
1295.867	997.7
1296.627	567.63
1297.387	-726.69
1298.148	-423.59
1298.91	239.95
1299.672	14.68
1300.434	-644.77
1301.197	-767.65
1301.961	1163.59
1302.725	235.86
1303.489	-501.41
1304.254	-470.69
1305.02	366.93
1305.786	641.36
1306.552	-980.64
1307.319	-931.48
1308.087	706.89
1308.855	708.94
1309.624	-577.19
1310.393	-579.23
1311.162	-206.5
1311.933	571.72
1312.703	-603.81
1313.474	-399.01
1314.246	170.32
1315.018	551.24
1315.791	-282.28
1316.564	-722.59
1317.338	567.63
1318.112	242
1318.887	-824.99
1319.662	-501.41
1320.438	340.3
1321.214	125.27
1321.991	-480.93
1322.769	-683.68
1323.546	360.78
1324.325	4.44
1325.104	-738.98
1325.883	-534.18
1326.663	-85.67
1327.444	395.6
1328.224	-636.58
1329.006	-439.97
1329.788	321.87
1330.571	280.91
1331.354	-288.42
1332.137	-636.58
1332.921	600.4
1333.706	-116.39
1334.491	-460.45
1335.277	-560.8
1336.063	123.22
1336.849	205.14
1337.637	-689.82
1338.424	-726.69
1339.213	848.2
1340.001	774.47
1340.791	-779.93
1341.581	-464.55
1342.371	440.65
1343.162	258.39
1343.953	-624.29
1344.745	-513.7
1345.537	481.61
1346.33	493.9
1347.124	-636.58
1347.918	-337.57
1348.712	944.45
1349.507	418.13
1350.303	-603.81
1351.099	-462.5
1351.896	16.73
1352.693	-284.33
1353.49	-587.43
1354.289	-632.48
1355.087	555.34
1355.887	710.99
1356.686	-497.32
1357.487	-558.75
1358.288	-7.85
1359.089	153.94
1359.891	-145.06
1360.693	-605.86
1361.496	-198.31
1362.3	262.48
1363.104	-648.86
1363.908	-655.01
1364.713	858.44
1365.519	829.77
1366.325	-724.64
1367.131	-796.32
1367.939	272.72
1368.746	911.69
1369.555	-865.95
1370.363	-513.7
1371.173	854.34
1371.982	1139.01
1372.793	-689.82
1373.604	-851.61
1374.415	538.96
1375.227	805.19
1376.039	-708.26
1376.852	-644.77
1377.666	1012.04
1378.48	223.57
1379.295	-724.64
1380.11	-833.18
1380.925	-112.3
1381.742	766.28
1382.558	-587.43
1383.376	-642.72
1384.193	442.7
1385.012	168.27
1385.831	-628.39
1386.65	-603.81
1387.47	186.71
1388.29	141.65
1389.111	-603.81
1389.933	-820.89
1390.755	657.74
1391.578	293.2
1392.401	-874.14
1393.225	-560.8
1394.049	850.25
1394.873	203.09
1395.699	-693.92
1396.525	-601.76
1397.351	674.12
1398.178	-112.3
1399.005	-538.27
1399.833	-1070.75
1400.662	538.96
1401.491	952.65
1402.321	-636.58
1403.151	-521.89
1403.981	362.83
1404.813	577.87
1405.644	-413.35
1406.477	-747.17
1407.309	239.95
1408.143	1071.43
1408.977	-677.54
1409.811	-605.86
1410.646	868.68
1411.482	743.75
1412.318	-476.84
1413.155	-587.43
1413.992	545.1
1414.829	-36.52
1415.668	-577.19
1416.506	-460.45
1417.346	784.71
1418.186	315.73
1419.026	-624.29
1419.867	-849.57
1420.709	641.36
1421.551	493.9
1422.393	-908.96
1423.236	-388.77
1424.08	346.45
1424.924	229.71
1425.769	-765.6
1426.614	-618.15
1427.46	287.06
1428.307	168.27
1429.154	-853.66
1430.001	-730.78
1430.849	383.31
1431.698	155.99
1432.547	-874.14
1433.397	-868
1434.247	624.97
1435.098	913.74
1435.949	-661.15
1436.801	-640.67
1437.653	35.16
1438.506	471.37
1439.36	-988.83
1440.214	-640.67
1441.069	479.57
1441.924	438.61
1442.78	-673.44
1443.636	-822.94
1444.493	248.15
1445.35	362.83
1446.208	-419.49
1447.067	-788.13
1447.926	371.02
1448.785	780.62
1449.645	-628.39
1450.506	-644.77
1451.367	381.26
1452.229	141.65
1453.091	-700.06
1453.954	-382.63
1454.818	117.08
1455.682	360.78
1456.546	-681.63
1457.412	-808.61
1458.277	643.4
1459.143	354.64
1460.01	-487.08
1460.878	-716.45
1461.745	323.92
1462.614	106.84
1463.483	-841.37
1464.352	-431.78
1465.223	698.7
1466.093	555.34
1466.964	-804.51
1467.836	-730.78
1468.709	657.74
1469.581	334.16
1470.455	-544.42
1471.329	-716.45
1472.203	-20.14
1473.079	133.46
1473.954	-231.08
1474.831	-718.5
1475.707	90.45
1476.585	180.56
1477.463	-661.15
1478.341	-628.39
1479.22	-9.9
1480.1	442.7
1480.98	-892.57
1481.861	-808.61
1482.742	391.5
1483.624	592.2
1484.506	-431.78
1485.389	-554.66
1486.273	133.46
1487.157	198.99
1488.041	-659.1
1488.926	-784.03
1489.812	303.44
1490.699	321.87
1491.585	-652.96
1492.473	-577.19
1493.361	-208.55
1494.249	176.47
1495.139	-482.98
1496.028	-501.41
1496.919	-5.8
1497.809	321.87
1498.701	-644.77
1499.593	-685.73
1500.485	133.46
1501.378	661.84
1502.272	-362.15
1503.166	-628.39
1504.061	629.07
1504.956	360.78
1505.852	-603.81
1506.749	-800.41
1507.646	420.17
1508.543	313.68
1509.442	-800.41
1510.34	-77.48
1511.24	911.69
1512.14	215.38
1513.04	-683.68
1513.941	-824.99
1514.843	1034.57
1515.745	-38.57
1516.648	-538.27
1517.551	-800.41
1518.455	-222.89
1519.359	-284.33
1520.264	-841.37
1521.17	-798.37
1522.076	149.84
1522.983	405.84
1523.89	-847.52
1524.798	-394.92
1525.706	317.78
1526.615	1268.03
1527.525	-816.8
1528.435	-609.95
1529.346	452.94
1530.257	37.2
1531.169	-448.16
1532.081	-755.36
1532.994	1016.13
1533.908	158.03
1534.822	-700.06
1535.737	-546.47
1536.652	301.39
1537.568	254.29
1538.484	-673.44
1539.401	-976.54
1540.319	821.58
1541.237	-134.82
1542.156	-808.61
1543.075	-704.16
1543.995	993.61
1544.916	1053
1545.837	-759.46
1546.758	-702.11
1547.68	534.86
1548.603	651.6
1549.527	-517.79
1550.451	-800.41
1551.375	534.86
1552.3	747.85
1553.226	-855.71
1554.152	-677.54
1555.079	694.6
1556.006	301.39
1556.934	-489.12
1557.863	-489.12
1558.792	880.97
1559.722	78.16
1560.652	-550.56
1561.583	-847.52
1562.514	65.88
1563.446	117.08
1564.379	-972.44
1565.312	-472.74
1566.246	571.72
1567.18	313.68
1568.115	-612
1569.051	-685.73
1569.987	760.14
1570.924	876.87
1571.861	-806.56
1572.799	-587.43
1573.737	600.4
1574.676	289.1
1575.616	-493.22
1576.556	-716.45
1577.497	-71.34
1578.438	84.31
1579.38	-761.5
1580.323	-530.08
1581.266	305.49
1582.21	751.95
1583.154	-743.07
1584.099	-693.92
1585.044	518.48
1585.99	665.93
1586.937	-349.86
1587.884	-587.43
1588.832	186.71
1589.78	938.31
1590.729	-677.54
1591.679	-439.97
1592.629	387.41
1593.58	520.53
1594.531	-468.64
1595.483	-548.51
1596.435	223.57
1597.388	-42.67
1598.342	-370.34
1599.296	-405.16
1600.251	534.86
1601.207	721.23
1602.163	-552.61
1603.119	-677.54
1604.077	813.38
1605.034	780.62
1605.993	-431.78
1606.952	-5.8
1607.911	317.78
1608.872	389.46
1609.832	-726.69
1610.794	-868
1611.756	545.1
1612.718	469.33
1613.681	-335.53
1614.645	-616.1
1615.609	686.41
1616.574	198.99
1617.54	-151.21
1618.506	-671.39
1619.472	768.33
1620.44	702.79
1621.408	-153.26
1622.376	-464.55
1623.345	393.55
1624.315	690.51
1625.285	-554.66
1626.256	-425.64
1627.227	428.37
1628.199	-112.3
1629.172	-501.41
1630.145	-407.2
1631.119	276.82
1632.094	985.41
1633.069	-562.85
1634.044	-423.59
1635.02	215.38
1635.997	786.76
1636.975	-534.18
1637.953	-763.55
1638.931	1077.57
1639.911	47.44
1640.89	-743.07
1641.871	-568.99
1642.852	475.47
1643.833	350.54
1644.816	-743.07
1645.798	-824.99
1646.782	895.3
1647.766	72.02
1648.75	-669.34
1649.736	-618.15
1650.721	-22.19
1651.708	387.41
1652.695	-601.76
1653.682	-646.82
1654.671	395.6
1655.66	534.86
1656.649	-636.58
1657.639	-612
1658.63	-85.67
1659.621	110.93
1660.613	-835.23
1661.605	-835.23
1662.598	196.95
1663.592	131.41
1664.586	-943.77
1665.581	-788.13
1666.576	145.75
1667.572	362.83
1668.569	-718.5
1669.566	-779.93
1670.564	475.47
1671.563	768.33
1672.562	-657.06
1673.562	-347.81
1674.562	438.61
1675.563	385.36
1676.564	-386.72
1677.566	-607.91
1678.569	878.92
1679.572	-300.71
1680.576	-521.89
1681.581	-720.54
1682.586	84.31
1683.592	543.05
1684.598	-585.38
1685.605	-482.98
1686.613	569.68
1687.621	201.04
1688.63	-542.37
1689.639	-489.12
1690.649	174.42
1691.66	297.3
1692.671	-452.26
1693.683	-677.54
1694.696	-9.9
1695.709	196.95
1696.722	-691.87
1697.737	-573.09
1698.752	158.03
1699.767	565.58
1700.783	-513.7
1701.8	-460.45
1702.818	311.63
1703.836	8.53
1704.854	-886.43
1705.873	-607.91
1706.893	108.88
1707.914	301.39
1708.935	-595.62
1709.956	-562.85
1710.979	291.15
1712.002	225.62
1713.025	-661.15
1714.049	-517.79
1715.074	538.96
1716.099	493.9
1717.125	-718.5
1718.152	-792.22
1719.179	22.87
1720.207	715.08
1721.235	-161.45
1722.265	-226.98
1723.294	280.91
1724.325	170.32
1725.355	-462.5
1726.387	-538.27
1727.419	219.47
1728.452	612.68
1729.485	-509.6
1730.519	-685.73
1731.554	45.4
1732.589	420.17
1733.625	-786.08
1734.662	-622.24
1735.699	-38.57
1736.736	682.31
1737.775	-640.67
1738.814	-583.33
1739.853	94.55
1740.894	176.47
1741.934	-476.84
1742.976	-679.58
1744.018	452.94
1745.061	268.63
1746.104	-620.19
1747.148	-693.92
1748.193	391.5
1749.238	340.3
1750.284	-472.74
1751.33	-751.26
1752.377	420.17
1753.425	954.69
1754.473	-607.91
1755.522	-480.93
1756.572	811.34
1757.622	510.29
1758.673	-681.63
1759.724	-505.51
1760.776	702.79
1761.829	584.01
1762.882	-292.52
1763.936	-743.07
1764.991	-20.14
1766.046	940.36
1767.102	-405.16
1768.158	-792.22
1769.215	489.81
1770.273	440.65
1771.331	-505.51
1772.39	-790.17
1773.45	362.83
1774.51	532.81
1775.571	-716.45
1776.632	-274.09
1777.694	112.98
1778.757	428.37
1779.82	-333.48
1780.884	-480.93
1781.949	207.19
1783.014	510.29
1784.08	-833.18
1785.147	-706.21
1786.214	35.16
1787.282	80.21
1788.35	-437.92
1789.419	-421.54
1790.489	682.31
1791.559	313.68
1792.63	-657.06
1793.702	-396.96
1794.774	129.36
1795.847	479.57
1796.92	-399.01
1797.994	-501.41
1799.069	571.72
1800.144	1075.52
1801.22	-591.52
1802.297	-347.81
1803.374	2.39
1804.452	510.29
1805.531	-677.54
1806.61	-368.29
1807.69	473.42
1808.77	-136.87
1809.851	-425.64
1810.933	-894.62
1812.015	649.55
1813.098	92.5
1814.182	-642.72
1815.266	-485.03
1816.351	258.39
1817.437	264.53
1818.523	-495.27
1819.61	-568.99
1820.697	297.3
1821.785	1069.38
1822.874	-530.08
1823.963	-628.39
1825.053	88.4
1826.144	493.9
1827.235	-568.99
1828.327	-554.66
1829.42	381.26
1830.513	-159.4
1831.607	-710.3
1832.701	-657.06
1833.796	282.96
1834.892	686.41
1835.989	-765.6
1837.086	-775.84
1838.183	487.76
1839.282	227.67
1840.381	-644.77
1841.48	-562.85
1842.581	383.31
1843.682	917.83
1844.783	-265.89
1845.885	-413.35
1846.988	651.6
1848.092	495.95
1849.196	-509.6
1850.301	-331.43
1851.406	-22.19
1852.512	1018.18
1853.619	-542.37
1854.726	-718.5
1855.834	10.58
1856.943	682.31
1858.052	-636.58
1859.162	-599.71
1860.273	317.78
1861.384	778.57
1862.496	-558.75
1863.608	-728.74
1864.721	461.13
1865.835	133.46
1866.95	-579.23
1868.065	-628.39
1869.181	96.6
1870.297	530.77
1871.414	-423.59
1872.532	-759.46
1873.65	174.42
1874.769	141.65
1875.889	-708.26
1877.009	-214.7
1878.13	379.22
1879.252	768.33
1880.374	-421.54
1881.497	-609.95
1882.62	346.45
1883.745	82.26
1884.87	-730.78
1885.995	-841.37
1887.121	258.39
1888.248	18.77
1889.376	-855.71
1890.504	-726.69
1891.632	444.75
1892.762	149.84
1893.892	-730.78
1895.023	-437.92
1896.154	18.77
1897.286	270.67
1898.419	-628.39
1899.552	-534.18
1900.686	510.29
1901.821	405.84
1902.956	-650.91
1904.092	-530.08
1905.229	778.57
1906.366	551.24
1907.504	-663.2
1908.643	-652.96
1909.782	477.52
