Data from led_USB4H112691__3__11-27-39-546.txt Node

Date: Tue Dec 17 11:27:39 CET 2024
User: Etudiants TP
Spectrometer: USB4H11269
Trigger mode: 4
Integration Time (sec): 1.000000E0
Scans to average: 1
Electric dark correction enabled: true
Nonlinearity correction enabled: false
Boxcar width: 0
XAxis mode: Wavelengths
Number of Pixels in Spectrum: 3648
>>>>>Begin Spectral Data<<<<<
286.377	-1646.23
286.631	-1646.23
286.884	-1646.23
287.138	-1621.65
287.391	-1584.79
287.644	-896.67
287.896	-626.34
288.149	749.9
288.401	450.89
288.653	-470.69
288.905	-466.6
289.157	846.15
289.409	291.15
289.661	-349.86
289.912	-708.26
290.163	446.8
290.414	733.51
290.665	-702.11
290.916	-554.66
291.166	561.48
291.417	1038.66
291.667	-519.84
291.917	-233.13
292.167	471.37
292.417	323.92
292.666	-804.51
292.916	-591.52
293.165	510.29
293.414	661.84
293.663	-886.43
293.912	-773.79
294.16	758.09
294.408	655.69
294.657	-667.3
294.905	-356.01
295.153	555.34
295.4	635.21
295.648	-734.88
295.895	-732.83
296.143	201.04
296.39	758.09
296.637	-640.67
296.884	-724.64
297.13	655.69
297.377	831.82
297.623	-485.03
297.869	-315.05
298.115	782.67
298.361	594.25
298.606	-712.35
298.852	-528.03
299.097	577.87
299.342	897.35
299.587	-331.43
299.832	-544.42
300.077	651.6
300.322	659.79
300.566	-618.15
300.81	-433.83
301.054	500.05
301.298	825.67
301.542	-255.65
301.785	-259.75
302.029	983.37
302.272	696.65
302.515	-765.6
302.758	-546.47
303.001	692.55
303.244	747.85
303.486	-417.44
303.729	-818.85
303.971	973.13
304.213	766.28
304.455	-781.98
304.696	-241.32
304.938	260.43
305.179	760.14
305.421	-401.06
305.662	-409.25
305.903	350.54
306.143	291.15
306.384	-378.53
306.625	-474.79
306.865	409.94
307.105	250.19
307.345	-534.18
307.585	-464.55
307.825	-5.8
308.064	727.37
308.304	-593.57
308.543	-765.6
308.782	528.72
309.021	813.38
309.26	-308.9
309.499	-507.55
309.737	930.12
309.976	782.67
310.214	-691.87
310.452	-642.72
310.69	1034.57
310.928	158.03
311.165	-523.94
311.403	-573.09
311.64	797
311.878	653.64
312.115	-515.75
312.351	-472.74
312.588	360.78
312.825	964.93
313.061	-724.64
313.298	4.44
313.534	242
313.77	807.24
314.006	-556.71
314.241	-513.7
314.477	647.5
314.713	1141.06
314.948	-511.65
315.183	188.75
315.418	948.55
315.653	481.61
315.888	-640.67
316.122	-421.54
316.357	221.52
316.591	842.06
316.825	-532.13
317.059	-548.51
317.293	954.69
317.527	438.61
317.76	-679.58
317.994	-474.79
318.227	725.32
318.46	1077.57
318.693	-673.44
318.926	-417.44
319.159	115.03
319.391	510.29
319.624	-675.49
319.856	-450.21
320.088	753.99
320.321	655.69
320.552	-249.51
320.784	-687.78
321.016	737.61
321.247	-79.53
321.479	-317.09
321.71	-300.71
321.941	-106.15
322.172	1083.72
322.403	-626.34
322.633	-386.72
322.864	860.49
323.094	184.66
323.325	-97.96
323.555	-677.54
323.785	153.94
324.014	278.87
324.244	-456.36
324.474	-274.09
324.703	895.3
324.933	848.2
325.162	-294.57
325.391	-710.3
325.62	-5.8
325.848	713.03
326.077	-437.92
326.306	-323.24
326.534	717.13
326.762	934.22
326.99	-587.43
327.218	-315.05
327.446	715.08
327.674	-3.75
327.901	-499.36
328.129	-548.51
328.356	751.95
328.583	121.17
328.81	-642.72
329.037	-507.55
329.264	422.22
329.491	868.68
329.717	-425.64
329.944	-612
330.17	325.97
330.396	184.66
330.622	-630.43
330.848	-255.65
331.074	489.81
331.299	1433.92
331.525	-601.76
331.75	-568.99
331.975	854.34
332.201	123.22
332.426	-829.09
332.65	-575.14
332.875	-147.11
333.1	422.22
333.324	-712.35
333.549	-558.75
333.773	373.07
333.997	504.14
334.221	-618.15
334.445	-568.99
334.668	467.28
334.892	1085.76
335.116	-327.33
335.339	-478.88
335.562	-52.91
335.785	477.52
336.008	-269.99
336.231	-605.86
336.454	-118.44
336.676	844.1
336.899	-458.4
337.121	-179.88
337.343	-13.99
337.566	538.96
337.788	-601.76
338.009	-691.87
338.231	147.8
338.453	422.22
338.674	3217.7
338.896	-517.79
339.117	0.34
339.338	1065.29
339.559	-679.58
339.78	-585.38
340.001	110.93
340.222	878.92
340.442	-577.19
340.663	-263.85
340.883	667.98
341.103	266.58
341.323	-503.46
341.543	-450.21
341.763	823.62
341.983	258.39
342.202	-581.28
342.422	-556.71
342.641	1096
342.861	387.41
343.08	-251.56
343.299	-650.91
343.518	620.88
343.736	708.94
343.955	-507.55
344.174	-636.58
344.392	735.56
344.61	119.12
344.829	-681.63
345.047	-564.9
345.265	549.2
345.483	905.54
345.7	-601.76
345.918	-214.7
346.136	86.36
346.353	835.91
346.57	-640.67
346.788	-634.53
347.005	364.88
347.222	-52.91
347.438	6.49
347.655	-546.47
347.872	65.88
348.088	1046.85
348.305	-413.35
348.521	-558.75
348.737	102.74
348.953	993.61
349.169	-220.84
349.385	-460.45
349.601	422.22
349.817	-91.82
350.032	-114.34
350.248	-356.01
350.463	1206.59
350.678	-294.57
350.893	-657.06
351.108	-675.49
351.323	115.03
351.538	809.29
351.753	-607.91
351.967	-597.67
352.182	731.47
352.396	266.58
352.61	-716.45
352.824	-566.95
353.038	557.39
353.252	817.48
353.466	-333.48
353.68	-548.51
353.894	373.07
354.107	160.08
354.32	-368.29
354.534	-624.29
354.747	704.84
354.96	0.34
355.173	-337.57
355.386	-777.89
355.599	471.37
355.811	266.58
356.024	-679.58
356.236	-413.35
356.449	291.15
356.661	332.11
356.873	-730.78
357.085	-829.09
357.297	553.29
357.509	571.72
357.721	-544.42
357.933	-560.8
358.144	270.67
358.356	211.28
358.567	-386.72
358.778	-675.49
358.989	850.25
359.2	102.74
359.411	-401.06
359.622	-278.18
359.833	414.03
360.044	356.69
360.254	-519.84
360.465	-622.24
360.675	424.27
360.885	264.53
361.096	-667.3
361.306	-446.12
361.516	215.38
361.726	459.09
361.935	-777.89
362.145	-517.79
362.355	516.43
362.564	457.04
362.774	-712.35
362.983	-753.31
363.192	786.76
363.401	147.8
363.61	-601.76
363.819	-267.94
364.028	467.28
364.237	926.02
364.445	-581.28
364.654	-329.38
364.862	436.56
365.071	143.7
365.279	-482.98
365.487	-618.15
365.695	573.77
365.903	364.88
366.111	-577.19
366.319	-552.61
366.527	586.06
366.734	235.86
366.942	-415.4
367.149	-728.74
367.357	-583.33
367.564	1012.04
367.771	-458.4
367.978	-554.66
368.185	72.02
368.392	180.56
368.599	-304.81
368.806	-552.61
369.013	12.63
369.219	504.14
369.426	-712.35
369.632	-255.65
369.838	1210.69
370.044	557.39
370.251	-468.64
370.457	-497.32
370.663	905.54
370.868	364.88
371.074	-540.32
371.28	-609.95
371.485	-198.31
371.691	581.96
371.896	-632.48
372.102	-683.68
372.307	1061.19
372.512	911.69
372.717	-605.86
372.922	-220.84
373.127	72.02
373.332	364.88
373.537	-503.46
373.741	-460.45
373.946	454.99
374.151	219.47
374.355	-667.3
374.559	-456.36
374.764	201.04
374.968	-360.1
375.172	-642.72
375.376	-272.04
375.58	436.56
375.784	33.11
375.987	-642.72
376.191	-507.55
376.395	162.13
376.598	215.38
376.802	-636.58
377.005	-265.89
377.208	293.2
377.412	29.01
377.615	-794.27
377.818	-550.56
378.021	141.65
378.224	-89.77
378.426	-558.75
378.629	-804.51
378.832	751.95
379.034	577.87
379.237	-853.66
379.439	-827.04
379.642	684.36
379.844	561.48
380.046	-843.42
380.248	-712.35
380.45	-153.26
380.652	-216.74
380.854	-614.05
381.056	-605.86
381.258	217.43
381.459	444.75
381.661	-794.27
381.862	-356.01
382.064	-108.2
382.265	151.89
382.467	-663.2
382.668	-429.73
382.869	694.6
383.07	340.3
383.271	-446.12
383.472	-736.93
383.673	610.64
383.874	430.41
384.074	-356.01
384.275	-691.87
384.476	500.05
384.676	1014.09
384.876	-749.22
385.077	-626.34
385.277	686.41
385.477	852.3
385.677	-671.39
385.878	-427.68
386.078	305.49
386.278	409.94
386.477	-294.57
386.677	-159.4
386.877	543.05
387.077	647.5
387.276	-269.99
387.476	-478.88
387.675	328.02
387.875	903.5
388.074	-640.67
388.273	-501.41
388.472	786.76
388.671	-179.88
388.87	-634.53
389.069	-132.78
389.268	-151.21
389.467	53.59
389.666	-685.73
389.865	-216.74
390.063	569.68
390.262	751.95
390.461	-585.38
390.659	-638.62
390.857	764.23
391.056	653.64
391.254	-605.86
391.452	-507.55
391.65	835.91
391.849	536.91
392.047	-437.92
392.245	-192.17
392.442	254.29
392.64	493.9
392.838	-298.66
393.036	-442.02
393.233	350.54
393.431	289.1
393.629	-796.32
393.826	-482.98
394.023	246.1
394.221	-204.46
394.418	-456.36
394.615	-249.51
394.812	-89.77
395.01	776.52
395.207	-568.99
395.404	-700.06
395.601	889.16
395.797	502.09
395.994	-640.67
396.191	-458.4
396.388	162.13
396.584	639.31
396.781	-292.52
396.977	18.77
397.174	610.64
397.37	-128.68
397.567	-396.96
397.763	-599.71
397.959	295.25
398.155	317.78
398.352	-419.49
398.548	-265.89
398.744	504.14
398.94	440.65
399.136	-652.96
399.331	-269.99
399.527	358.74
399.723	463.18
399.919	-380.58
400.114	-417.44
400.31	205.14
400.505	575.82
400.701	-417.44
400.896	-507.55
401.092	162.13
401.287	366.93
401.482	-607.91
401.678	-419.49
401.873	645.45
402.068	690.51
402.263	-339.62
402.458	-462.5
402.653	182.61
402.848	516.43
403.043	-437.92
403.237	-618.15
403.432	82.26
403.627	-216.74
403.822	-806.56
404.016	-519.84
404.211	139.6
404.405	618.83
404.6	-177.83
404.794	-196.26
404.989	418.13
405.183	239.95
405.377	-216.74
405.571	-57
405.766	553.29
405.96	287.06
406.154	-450.21
406.348	-417.44
406.542	528.72
406.736	547.15
406.93	-575.14
407.124	-315.05
407.318	325.97
407.511	391.5
407.705	-319.14
407.899	-536.23
408.092	483.66
408.286	360.78
408.48	-609.95
408.673	-401.06
408.867	147.8
409.06	495.95
409.253	-394.92
409.447	-356.01
409.64	708.94
409.833	569.68
410.026	-208.55
410.22	-216.74
410.413	735.56
410.606	475.47
410.799	-638.62
410.992	-372.39
411.185	332.11
411.378	1012.04
411.571	-347.81
411.764	-272.04
411.956	749.9
412.149	526.67
412.342	-190.12
412.534	-241.32
412.727	708.94
412.92	457.04
413.112	-278.18
413.305	-65.19
413.497	897.35
413.69	766.28
413.882	-282.28
414.075	-26.28
414.267	618.83
414.459	403.79
414.652	-485.03
414.844	-235.18
415.036	598.35
415.228	969.03
415.42	29.01
415.612	-308.9
415.804	1044.81
415.997	713.03
416.188	-69.29
416.38	-26.28
416.572	471.37
416.764	786.76
416.956	-304.81
417.148	-288.42
417.34	463.18
417.531	178.51
417.723	-192.17
417.915	-116.39
418.107	358.74
418.298	747.85
418.49	-132.78
418.681	22.87
418.873	1083.72
419.064	676.17
419.256	-36.52
419.447	-102.06
419.639	856.39
419.83	1134.92
420.021	115.03
420.213	-108.2
420.404	723.27
420.595	776.52
420.786	295.25
420.978	164.18
421.169	1075.52
421.36	614.73
421.551	45.4
421.742	-24.23
421.933	1356.1
422.124	1085.76
422.315	143.7
422.506	145.75
422.697	1036.61
422.888	786.76
423.079	428.37
423.27	137.56
423.461	803.15
423.652	803.15
423.842	166.23
424.033	381.26
424.224	1192.26
424.415	1579.33
424.605	430.41
424.796	209.23
424.987	1288.51
425.177	1143.11
425.368	29.01
425.558	135.51
425.749	1085.76
425.939	860.49
426.13	713.03
426.32	610.64
426.511	899.4
426.701	1020.23
426.892	571.72
427.082	465.23
427.272	1077.57
427.463	1298.75
427.653	610.64
427.843	776.52
428.034	1915.19
428.224	1556.8
428.414	500.05
428.604	688.46
428.795	1544.51
428.985	1677.63
429.175	1009.99
429.365	913.74
429.555	1618.24
429.745	1632.57
429.935	880.97
430.126	1069.38
430.316	1859.9
430.506	1872.18
430.696	1114.44
430.886	1071.43
431.076	1958.2
431.266	1685.82
431.456	1239.36
431.645	1151.3
431.835	1800.51
432.025	1962.3
432.215	1028.42
432.405	1438.02
432.595	2054.45
432.785	1954.1
432.975	1308.99
433.164	1118.53
433.354	1995.06
433.544	2279.73
433.734	1182.02
433.923	1737.02
434.113	2146.61
434.303	2183.48
434.493	1790.27
434.682	1741.11
434.872	2599.21
435.062	2148.66
435.251	1800.51
435.441	1720.64
435.631	2963.75
435.82	2756.91
436.01	1818.94
436.2	1984.82
436.389	2650.41
436.579	3311.91
436.768	2437.42
436.958	2449.71
437.147	2945.32
437.337	3242.28
437.527	2433.33
437.716	2480.43
437.906	3535.14
438.095	3223.84
438.285	2619.69
438.474	2683.18
438.664	3741.98
438.853	3559.71
439.043	2930.98
439.232	2584.88
439.422	3854.62
439.611	3883.29
439.8	2857.26
439.99	3500.32
440.179	4161.81
440.369	4440.34
440.558	3152.17
440.748	3344.67
440.937	4077.85
441.126	4028.7
441.316	3850.52
441.505	3526.94
441.695	4577.55
441.884	5255.43
442.073	3979.54
442.263	3854.62
442.452	4634.89
442.642	5038.34
442.831	4075.8
443.02	4415.76
443.21	5660.93
443.399	5968.12
443.588	4616.46
443.778	4653.33
443.967	6017.27
444.156	5431.55
444.346	4497.68
444.535	4620.56
444.725	6355.19
444.914	5484.8
445.103	4839.69
445.293	5230.85
445.482	6295.8
445.671	6041.85
445.861	5234.95
446.05	5304.58
446.239	6334.71
446.429	5705.98
446.618	5191.94
446.807	5492.99
446.997	6428.92
447.186	6420.72
447.376	5640.45
447.565	5681.41
447.754	6574.32
447.944	6779.12
448.133	5542.14
448.322	5286.15
448.512	6189.3
448.701	6807.79
448.891	5468.42
449.08	5390.6
449.269	5779.71
449.459	5873.92
449.648	5427.46
449.838	5558.53
450.027	5873.92
450.217	5884.16
450.406	5179.65
450.595	5380.36
450.785	6174.97
450.974	6283.51
451.164	5343.49
451.353	5370.12
451.543	6119.67
451.732	6469.87
451.922	5001.48
452.111	5067.02
452.301	5425.41
452.49	5271.81
452.68	4632.85
452.869	5347.59
453.059	5388.55
453.249	5886.2
453.438	4464.91
453.628	4722.96
453.817	5492.99
454.007	5515.52
454.197	4346.13
454.386	4684.05
454.576	5712.13
454.765	5492.99
454.955	4690.19
455.145	4509.97
455.334	5179.65
455.524	4874.51
455.714	4518.16
455.904	4116.76
456.093	5671.17
456.283	5128.46
456.473	4176.15
456.663	4086.04
456.852	4765.96
457.042	5003.53
457.232	4114.71
457.422	4720.91
457.612	4948.23
457.802	5388.55
457.991	3868.95
458.181	3746.08
458.371	4915.47
458.561	5026.06
458.751	4067.61
458.941	3819.8
459.131	4851.98
459.321	4542.74
459.511	3881.24
459.701	3807.52
459.891	4669.71
460.081	4157.72
460.271	3741.98
460.461	3576.09
460.651	5255.43
460.841	5013.77
461.032	3666.21
461.222	3842.33
461.412	4301.08
461.602	5300.48
461.792	3414.31
461.983	3363.11
462.173	4575.5
462.363	5013.77
462.554	3438.88
462.744	3492.13
462.934	4667.66
463.125	4354.32
463.315	3221.8
463.505	3715.36
463.696	4571.41
463.886	4047.13
464.077	3236.13
464.267	3305.76
464.458	4696.33
464.648	3862.81
464.839	3543.33
465.03	3270.95
465.22	3739.93
465.411	4313.36
465.601	3219.75
465.792	3125.54
465.983	4016.41
466.174	4276.5
466.364	2939.18
466.555	3254.56
466.746	4288.79
466.937	3871
467.128	3213.6
467.319	3082.53
467.51	4303.12
467.701	4911.37
467.891	3127.59
468.082	3096.87
468.274	4018.46
468.465	3363.11
468.656	3309.86
468.847	2953.51
469.038	3526.94
469.229	3711.26
469.42	3221.8
469.612	3000.62
469.803	4024.6
469.994	4016.41
470.185	3031.34
470.377	3002.66
470.568	3891.48
470.76	3920.15
470.951	3107.11
471.142	3234.08
471.334	4145.43
471.526	3911.96
471.717	3162.41
471.909	2775.34
472.1	3666.21
472.292	3838.23
472.484	2695.47
472.675	2896.17
472.867	3731.74
473.059	4395.28
473.251	3017
473.443	2912.55
473.635	3789.08
473.826	4004.12
474.018	2849.07
474.21	2980.14
474.402	3871
474.595	4346.13
474.787	2840.87
474.979	3150.12
475.171	3625.25
475.363	3172.64
475.555	2685.23
475.748	2969.9
475.94	3907.87
476.132	3592.48
476.325	2812.2
476.517	3408.16
476.71	4610.32
476.902	3492.13
477.095	2922.79
477.287	3178.79
477.48	4043.03
477.673	3778.84
477.865	3014.95
478.058	2851.11
478.251	4012.31
478.444	4288.79
478.636	3078.44
478.829	2840.87
479.022	3856.67
479.215	3977.5
479.408	3232.04
479.601	3553.57
479.794	3758.36
479.988	3473.7
480.181	3232.04
480.374	3035.43
480.567	3901.72
480.76	4542.74
480.954	2969.9
481.147	2758.96
481.341	3565.85
481.534	3672.35
481.728	3047.72
481.921	3305.76
482.115	3969.3
482.308	4313.36
482.502	2816.3
482.696	2965.8
482.89	4516.11
483.084	4034.84
483.277	2980.14
483.471	3141.93
483.665	4088.09
483.859	4811.02
484.053	2625.84
484.247	2732.33
484.442	3684.64
484.636	3682.59
484.83	2830.63
485.024	3143.97
485.219	3868.95
485.413	3539.23
485.608	2855.21
485.802	3082.53
485.997	4100.37
486.191	3678.49
486.386	2744.62
486.58	3135.78
486.775	3797.28
486.97	4086.04
487.165	2953.51
487.36	3060.01
487.555	3787.04
487.75	3508.51
487.945	3158.31
488.14	2654.51
488.335	3424.55
488.53	3447.07
488.725	2734.38
488.92	3060.01
489.116	4192.53
489.311	3875.1
489.507	2625.84
489.702	3309.86
489.898	4135.19
490.093	3371.3
490.289	3195.17
490.485	2822.44
490.68	3258.66
490.876	4270.36
491.072	2662.7
491.268	2955.56
491.464	4036.89
491.66	3817.76
491.856	2949.42
492.052	3283.24
492.248	3989.78
492.445	3637.53
492.641	2707.76
492.837	2734.38
493.034	4077.85
493.23	4112.66
493.427	3127.59
493.623	2713.9
493.82	3635.49
494.017	4047.13
494.214	2677.04
494.41	2500.91
494.607	3891.48
494.804	3363.11
495.001	2810.15
495.198	2863.4
495.395	3883.29
495.593	3817.76
495.79	2605.36
495.987	2531.63
496.184	2978.09
496.382	3643.68
496.579	2576.69
496.777	2543.92
496.974	4176.15
497.172	3574.05
497.37	2552.11
497.568	2408.75
497.766	4223.25
497.963	3406.11
498.161	2617.65
498.359	2662.7
498.558	3930.39
498.756	3701.02
498.954	2373.94
499.152	2842.92
499.351	3567.9
499.549	3422.5
499.747	2588.97
499.946	2521.39
500.145	3324.19
500.343	3260.71
500.542	2388.27
500.741	2355.51
500.94	3498.27
501.139	3711.26
501.338	2437.42
501.537	2672.94
501.736	3891.48
501.935	3477.79
502.134	2310.45
502.334	2457.9
502.533	3682.59
502.733	3399.97
502.932	2437.42
503.132	2486.58
503.331	3223.84
503.531	3635.49
503.731	2441.52
503.931	2294.07
504.131	3035.43
504.331	3543.33
504.531	2482.48
504.731	2339.12
504.931	3146.02
505.132	3113.25
505.332	2332.98
505.532	2326.83
505.733	3524.9
505.933	3789.08
506.134	2447.66
506.335	2052.41
506.536	2969.9
506.736	3469.6
506.937	2152.76
507.138	2076.98
507.34	3887.39
507.541	3219.75
507.742	2511.15
507.943	2144.56
508.145	3150.12
508.346	2523.44
508.548	1913.14
508.749	2076.98
508.951	2623.79
509.153	2883.88
509.354	2326.83
509.556	2298.16
509.758	3199.27
509.96	2715.95
510.163	2326.83
510.365	2218.29
510.567	2728.24
510.769	2797.87
510.972	2079.03
511.174	2478.38
511.377	2595.12
511.58	3922.2
511.782	2009.4
511.985	2167.09
512.188	3494.18
512.391	3094.82
512.594	1904.95
512.797	2076.98
513.001	3270.95
513.204	3666.21
513.407	2228.53
513.611	2087.22
513.814	3027.24
514.018	3320.1
514.222	2089.27
514.425	2019.64
514.629	2996.52
514.833	2973.99
515.037	2236.72
515.241	1956.15
515.445	2609.45
515.65	2726.19
515.854	2060.6
516.059	2079.03
516.263	3133.73
516.468	3047.72
516.672	2027.83
516.877	2009.4
517.082	2363.7
517.287	2969.9
517.492	2199.86
517.697	1986.87
517.902	2920.74
518.107	2670.89
518.313	2025.78
518.518	2031.93
518.724	3479.84
518.929	2994.47
519.135	2144.56
519.341	1691.96
519.547	2916.65
519.753	3019.05
519.959	1823.03
520.165	1913.14
520.371	2883.88
520.577	3461.41
520.784	1773.88
520.99	2195.76
521.197	2902.31
521.404	2902.31
521.61	1659.2
521.817	1726.78
522.024	3316
522.231	2695.47
522.438	1513.79
522.645	2283.83
522.853	2597.17
523.06	2961.7
523.268	1937.72
523.475	1974.58
523.683	2875.69
523.891	2984.23
524.098	1487.17
524.306	2128.18
524.514	2834.73
524.722	2722.09
524.931	2044.21
525.139	1818.94
525.347	2146.61
525.556	2603.31
525.764	1904.95
525.973	2097.46
526.182	2877.74
526.391	2507.06
526.6	1755.45
526.809	1792.31
527.018	2527.53
527.227	2818.35
527.436	1866.04
527.646	1876.28
527.855	2900.27
528.065	2617.65
528.275	1763.64
528.484	1737.02
528.694	3047.72
528.904	2736.43
529.114	1800.51
529.325	1775.93
529.535	2193.72
529.745	2761
529.956	1745.21
530.166	1780.03
530.377	2715.95
530.588	3160.36
530.799	2052.41
531.01	1722.68
531.221	3010.86
531.432	3076.39
531.643	1874.23
531.855	2277.68
532.066	3012.9
532.278	2674.99
532.489	1823.03
532.701	1694.01
532.913	2959.66
533.125	2789.67
533.337	1503.55
533.549	1716.54
533.762	2894.12
533.974	2199.86
534.186	1544.51
534.399	1802.55
534.612	2900.27
534.825	2640.17
535.037	1823.03
535.25	1855.8
535.464	2330.93
535.677	3100.97
535.89	1567.04
536.104	1935.67
536.317	2556.21
536.531	2486.58
536.744	1937.72
536.958	1759.55
537.172	2617.65
537.386	2562.35
537.6	1757.5
537.815	1638.72
538.029	2914.6
538.244	2859.31
538.458	1462.59
538.673	1648.96
538.888	2863.4
539.103	3205.41
539.318	1993.01
539.533	1644.86
539.748	2554.16
539.963	2396.46
540.179	1409.34
540.394	1399.1
540.61	2042.17
540.826	2375.99
541.042	1548.61
541.258	1470.78
541.474	3047.72
541.69	2486.58
541.906	1698.11
542.123	1622.33
542.339	2554.16
542.556	2076.98
542.773	1552.7
542.99	1689.92
543.207	2380.08
543.424	2289.97
543.641	1792.31
543.858	1919.29
544.076	2289.97
544.293	2193.72
544.511	1501.5
544.729	1536.32
544.947	2365.75
545.165	2384.18
545.383	1454.4
545.601	1562.94
545.819	2486.58
546.038	2249.01
546.256	1773.88
546.475	1478.97
546.694	3240.23
546.913	2728.24
547.132	2214.2
547.351	1552.7
547.57	1997.11
547.79	2175.28
548.009	1577.28
548.229	1521.98
548.449	2173.24
548.668	2738.48
548.888	1634.62
549.109	1503.55
549.329	2775.34
549.549	2777.39
549.77	1675.58
549.99	1757.5
550.211	2740.52
550.432	2881.83
550.653	1456.45
550.874	1587.52
551.095	3119.4
551.316	2355.51
551.538	1546.56
551.759	1880.38
551.981	2492.72
552.203	2707.76
552.424	1532.22
552.646	1892.66
552.869	2361.65
553.091	2349.36
553.313	1923.38
553.536	1691.96
553.758	2877.74
553.981	2328.88
554.204	1495.36
554.427	1648.96
554.65	2603.31
554.873	2054.45
555.097	1249.6
555.32	1677.63
555.544	2670.89
555.768	2584.88
555.992	1589.57
556.216	1380.67
556.44	2122.04
556.664	2691.37
556.888	2003.25
557.113	1433.92
557.337	3109.16
557.562	2986.28
557.787	1409.34
558.012	1728.83
558.237	2292.02
558.462	2220.34
558.688	1747.26
558.913	1569.09
559.139	2011.45
559.365	2554.16
559.591	1616.19
559.817	1534.27
560.043	2539.82
560.269	2869.55
560.496	1853.75
560.722	1642.81
560.949	3006.76
561.176	2003.25
561.403	1544.51
561.63	1777.98
561.857	1880.38
562.084	1923.38
562.312	1298.75
562.539	1747.26
562.767	3076.39
562.995	2117.94
563.223	1517.89
563.451	1782.07
563.679	2154.8
563.908	2310.45
564.136	1636.67
564.365	1794.36
564.594	1904.95
564.823	3477.79
565.052	1780.03
565.281	1294.66
565.51	2488.62
565.74	2152.76
565.969	1347.9
566.199	1683.77
566.429	2486.58
566.659	2507.06
566.889	1536.32
567.119	1552.7
567.35	2920.74
567.58	2834.73
567.811	1694.01
568.042	1458.5
568.273	2251.06
568.504	2605.36
568.735	1716.54
568.966	1663.29
569.198	2404.66
569.43	2707.76
569.661	1634.62
569.893	1868.09
570.125	3012.9
570.358	2666.8
570.59	1483.07
570.822	1485.12
571.055	2709.8
571.288	2797.87
571.521	1456.45
571.754	1562.94
571.987	2896.17
572.22	2378.03
572.454	1468.73
572.687	1675.58
572.921	1986.87
573.155	2472.24
573.389	2074.93
573.623	1872.18
573.858	2163
574.092	2705.71
574.327	1708.35
574.561	1939.77
574.796	2134.32
575.031	2464.05
575.266	1548.61
575.502	1577.28
575.737	2758.96
575.973	2437.42
576.209	1655.1
576.445	1495.36
576.681	2292.02
576.917	2531.63
577.153	1446.21
577.39	1585.47
577.626	2543.92
577.863	2396.46
578.1	1347.9
578.337	1626.43
578.574	2193.72
578.812	2765.1
579.049	1773.88
579.287	1474.88
579.525	2548.01
579.763	2541.87
580.001	1442.11
580.239	1597.76
580.478	2898.22
580.716	2502.96
580.955	1630.52
581.194	1671.48
581.433	2777.39
581.672	2488.62
581.911	1423.68
582.151	1433.92
582.39	2232.63
582.63	2971.94
582.87	1462.59
583.11	1454.4
583.35	1802.55
583.591	2388.27
583.831	1745.21
584.072	1933.62
584.313	2572.59
584.554	2410.8
584.795	1704.25
585.036	1720.64
585.277	3219.75
585.519	2797.87
585.761	1341.76
586.003	1433.92
586.245	2476.34
586.487	2957.61
586.729	1863.99
586.972	1552.7
587.215	3191.08
587.457	2177.33
587.7	1859.9
587.944	1663.29
588.187	2324.79
588.43	2279.73
588.674	1536.32
588.918	1483.07
589.162	2867.5
589.406	2240.82
589.65	1528.13
589.894	2232.63
590.139	2660.65
590.384	2826.54
590.629	1435.97
590.874	1571.13
591.119	2005.3
591.364	2531.63
591.61	1478.97
591.855	1380.67
592.101	3037.48
592.347	2552.11
592.593	1634.62
592.84	1759.55
593.086	3070.25
593.333	2126.13
593.58	1415.49
593.827	1454.4
594.074	2423.09
594.321	2261.3
594.568	1341.76
594.816	1358.14
595.064	2273.59
595.312	2335.03
595.56	1384.77
595.808	1694.01
596.057	2793.77
596.305	2281.78
596.554	1093.96
596.803	1655.1
597.052	2740.52
597.301	2947.37
597.551	1366.34
597.8	1659.2
598.05	2521.39
598.3	2400.56
598.55	1364.29
598.8	1388.86
599.051	2085.17
599.301	2177.33
599.552	1225.03
599.803	1718.59
600.054	2527.53
600.305	2273.59
600.556	1741.11
600.808	1450.3
601.06	2154.8
601.312	2375.99
601.564	1511.74
601.816	1218.88
602.068	2847.02
602.321	2502.96
602.574	1511.74
602.827	1171.78
603.08	2322.74
603.333	2453.81
603.587	1323.33
603.84	1552.7
604.094	2552.11
604.348	1997.11
604.602	1206.59
604.856	1319.23
605.111	2404.66
605.365	2421.04
605.62	1454.4
605.875	1147.2
606.13	2339.12
606.386	2191.67
606.641	1265.99
606.897	1274.18
607.153	2089.27
607.409	2705.71
607.665	1149.25
607.921	1218.88
608.178	1892.66
608.435	2249.01
608.692	1249.6
608.949	1429.82
609.206	2519.34
609.463	2429.23
609.721	1296.71
609.979	1493.31
610.237	2226.48
610.495	2500.91
610.753	1536.32
611.012	1407.3
611.27	2412.85
611.529	2326.83
611.788	1364.29
612.047	1202.5
612.307	1741.11
612.566	2396.46
612.826	1302.85
613.086	1274.18
613.346	1671.48
613.606	2234.68
613.867	1304.9
614.127	1380.67
614.388	1839.42
614.649	2429.23
614.91	1182.02
615.172	1374.53
615.433	1929.53
615.695	1972.54
615.957	1284.42
616.219	1186.12
616.481	2527.53
616.743	2109.75
617.006	979.27
617.269	1247.55
617.532	2265.39
617.795	2283.83
618.058	1231.17
618.322	1327.43
618.586	2175.28
618.849	1857.85
619.114	1292.61
619.378	930.12
619.642	2087.22
619.907	2324.79
620.172	1192.26
620.437	1190.21
620.702	2308.4
620.967	1915.19
621.233	995.65
621.499	1096
621.765	1859.9
622.031	2314.55
622.297	983.37
622.564	1065.29
622.83	1921.34
623.097	2578.73
623.364	1284.42
623.631	1392.96
623.899	2044.21
624.166	2216.24
624.434	1050.95
624.702	749.9
624.97	2416.94
625.239	1757.5
625.507	1044.81
625.776	1227.07
626.045	1651
626.314	2019.64
626.584	1225.03
626.853	1093.96
627.123	1806.65
627.393	1298.75
627.663	1155.4
627.933	954.69
628.204	2226.48
628.474	1962.3
628.745	815.43
629.016	1184.07
629.287	2001.21
629.559	1669.44
629.83	778.57
630.102	1038.66
630.374	1478.97
630.646	2545.97
630.919	1026.37
631.191	1325.38
631.464	1716.54
631.737	1440.06
632.01	934.22
632.284	938.31
632.557	2343.22
632.831	2027.83
633.105	889.16
633.379	979.27
633.654	1249.6
633.928	1857.85
634.203	946.5
634.478	766.28
634.753	1868.09
635.028	1827.13
635.304	1120.58
635.58	969.03
635.856	1761.59
636.132	1501.5
636.408	807.24
636.685	885.06
636.961	1628.48
637.238	1726.78
637.515	891.21
637.793	768.33
638.07	2062.65
638.348	1560.89
638.626	1038.66
638.904	1028.42
639.182	1159.49
639.461	1124.68
639.74	887.11
640.019	1067.33
640.298	973.13
640.577	1577.28
640.857	799.05
641.136	799.05
641.416	1556.8
641.696	2193.72
641.977	860.49
642.257	926.02
642.538	1677.63
642.819	2093.37
643.1	676.17
643.382	598.35
643.663	1913.14
643.945	1694.01
644.227	842.06
644.509	563.53
644.792	2158.9
645.074	1708.35
645.357	631.12
645.64	569.68
645.923	1536.32
646.207	1601.85
646.49	643.4
646.774	561.48
647.058	1521.98
647.342	1786.17
647.627	565.58
647.911	489.81
648.196	1962.3
648.481	1673.53
648.767	616.78
649.052	637.26
649.338	1216.83
649.624	1349.95
649.91	579.92
650.196	618.83
650.483	1759.55
650.77	1861.94
651.057	874.82
651.344	758.09
651.631	1515.84
651.919	1313.09
652.207	641.36
652.495	784.71
652.783	1653.05
653.071	1642.81
653.36	414.03
653.649	598.35
653.938	1397.06
654.227	1728.83
654.517	872.78
654.806	430.41
655.096	1040.71
655.387	1683.77
655.677	766.28
655.968	467.28
656.258	1118.53
656.549	2019.64
656.841	803.15
657.132	506.19
657.424	1282.37
657.716	1595.71
658.008	571.72
658.3	409.94
658.592	1392.96
658.885	1823.03
659.178	475.47
659.471	282.96
659.765	997.7
660.058	1392.96
660.352	418.13
660.646	504.14
660.94	2046.26
661.235	1605.95
661.53	903.5
661.824	360.78
662.12	1417.54
662.415	930.12
662.711	528.72
663.006	680.27
663.302	1053
663.599	1003.85
663.895	414.03
664.192	725.32
664.489	1679.68
664.786	1593.66
665.083	317.78
665.381	360.78
665.678	1321.28
665.976	1421.63
666.275	194.9
666.573	561.48
666.872	907.59
667.171	1225.03
667.47	160.08
667.769	209.23
668.069	1579.33
668.368	1446.21
668.668	82.26
668.969	74.07
669.269	1192.26
669.57	895.3
669.871	350.54
670.172	448.85
670.473	1577.28
670.775	1622.33
671.077	186.71
671.379	444.75
671.681	1610.04
671.983	1302.85
672.286	104.79
672.589	375.12
672.892	1241.41
673.196	1255.75
673.499	164.18
673.803	276.82
674.107	1341.76
674.411	1263.94
674.716	366.93
675.021	422.22
675.326	926.02
675.631	1515.84
675.936	102.74
676.242	278.87
676.548	911.69
676.854	1720.64
677.16	31.06
677.467	307.54
677.774	1216.83
678.081	907.59
678.388	524.62
678.696	442.7
679.004	1466.69
679.312	1782.07
679.62	379.22
679.928	454.99
680.237	1472.83
680.546	743.75
680.855	360.78
681.164	225.62
681.474	1323.33
681.784	1253.7
682.094	270.67
682.404	55.64
682.715	1454.4
683.026	721.23
683.337	78.16
683.648	510.29
683.959	1691.96
684.271	1339.71
684.583	274.77
684.895	-77.48
685.208	1237.31
685.52	1360.19
685.833	356.69
686.146	184.66
686.46	1585.47
686.773	1061.19
687.087	262.48
687.401	92.5
687.716	1220.93
688.03	1347.9
688.345	14.68
688.66	227.67
688.975	1421.63
689.291	1327.43
689.607	569.68
689.923	221.52
690.239	1044.81
690.555	1429.82
690.872	203.09
691.189	-3.75
691.506	1167.68
691.824	1413.44
692.142	102.74
692.459	153.94
692.778	915.78
693.096	1261.89
693.415	416.08
693.734	344.4
694.053	1012.04
694.372	717.13
694.692	-1.71
695.012	260.43
695.332	893.26
695.652	1102.15
695.973	268.63
696.294	178.51
696.615	913.74
696.936	1526.08
697.258	-85.67
697.579	215.38
697.902	805.19
698.224	954.69
698.546	110.93
698.869	-20.14
699.192	821.58
699.516	1274.18
699.839	127.32
700.163	213.33
700.487	776.52
700.811	1700.16
701.136	-157.35
701.461	102.74
701.786	1065.29
702.111	1544.51
702.436	-42.67
702.762	233.81
703.088	1339.71
703.415	1751.35
703.741	221.52
704.068	47.44
704.395	858.44
704.722	1306.95
705.05	20.82
705.377	198.99
705.705	1294.66
706.034	1059.14
706.362	-159.4
706.691	-210.6
707.02	1216.83
707.349	1194.31
707.679	100.69
708.009	37.2
708.339	999.75
708.669	1032.52
709	125.27
709.33	-75.43
709.661	1077.57
709.993	870.73
710.324	293.2
710.656	41.3
710.988	1208.64
711.321	1366.34
711.653	-163.5
711.986	155.99
712.319	545.1
712.652	1274.18
712.986	389.46
713.32	10.58
713.654	1472.83
713.988	1386.82
714.323	153.94
714.658	33.11
714.993	903.5
715.328	1028.42
715.664	201.04
716	323.92
716.336	1419.58
716.673	770.38
717.009	276.82
717.346	317.78
717.683	1564.99
718.021	1020.23
718.359	20.82
718.697	153.94
719.035	946.5
719.373	688.46
719.712	293.2
720.051	-73.39
720.39	1403.2
720.73	1057.09
721.07	106.84
721.41	151.89
721.75	1368.38
722.091	1220.93
722.432	160.08
722.773	379.22
723.114	971.08
723.456	1003.85
723.798	69.97
724.14	231.76
724.482	774.47
724.825	1130.82
725.168	330.06
725.511	143.7
725.855	1028.42
726.198	807.24
726.542	-20.14
726.887	526.67
727.231	1427.78
727.576	766.28
727.921	246.1
728.266	-16.04
728.612	979.27
728.958	1265.99
729.304	-52.91
729.651	520.53
729.997	770.38
730.344	921.93
730.691	135.51
731.039	336.21
731.387	1093.96
731.735	790.86
732.083	176.47
732.431	319.82
732.78	790.86
733.129	299.34
733.479	-13.99
733.828	242
734.178	819.53
734.528	528.72
734.879	147.8
735.23	127.32
735.581	1044.81
735.932	840.01
736.283	106.84
736.635	-108.2
736.987	1323.33
737.34	1327.43
737.692	-69.29
738.045	20.82
738.398	979.27
738.752	1337.66
739.105	-143.02
739.459	381.26
739.814	1331.52
740.168	1253.7
740.523	18.77
740.878	315.73
741.233	880.97
741.589	1290.56
741.945	133.46
742.301	180.56
742.657	1331.52
743.014	885.06
743.371	133.46
743.728	684.36
744.086	973.13
744.444	866.63
744.802	-100.01
745.16	49.49
745.519	1171.78
745.878	733.51
746.237	-89.77
746.597	276.82
746.956	1409.34
747.316	1022.28
747.677	-132.78
748.037	127.32
748.398	905.54
748.759	1167.68
749.121	244.05
749.482	328.02
749.844	739.66
750.207	516.43
750.569	-339.62
750.932	221.52
751.295	1610.04
751.659	1192.26
752.022	110.93
752.386	444.75
752.751	1024.33
753.115	418.13
753.48	110.93
753.845	151.89
754.21	1030.47
754.576	751.95
754.942	-183.98
755.308	254.29
755.675	749.9
756.041	1417.54
756.409	-259.75
756.776	237.91
757.144	1483.07
757.511	1122.63
757.88	67.92
758.248	-210.6
758.617	348.5
758.986	964.93
759.355	178.51
759.725	252.24
760.095	618.83
760.465	1302.85
760.836	-77.48
761.206	37.2
761.577	1274.18
761.949	627.02
762.32	250.19
762.692	-40.62
763.065	823.62
763.437	645.45
763.81	-110.25
764.183	143.7
764.556	1411.39
764.93	782.67
765.304	328.02
765.678	289.1
766.053	901.45
766.428	883.02
766.803	-272.04
767.178	53.59
767.554	416.08
767.93	627.02
768.306	-167.59
768.683	-48.81
769.06	1208.64
769.437	860.49
769.814	-233.13
770.192	-114.34
770.57	704.84
770.948	1675.58
771.327	119.12
771.706	-200.36
772.085	913.74
772.464	1265.99
772.844	80.21
773.224	-200.36
773.605	381.26
773.985	651.6
774.366	168.27
774.748	364.88
775.129	1007.94
775.511	1159.49
775.893	47.44
776.276	123.22
776.658	1239.36
777.041	895.3
777.425	-165.54
777.808	-26.28
778.192	659.79
778.576	1290.56
778.961	-261.8
779.346	-20.14
779.731	997.7
780.116	289.1
780.502	18.77
780.888	100.69
781.274	801.1
781.661	532.81
782.048	-278.18
782.435	-208.55
782.823	639.31
783.21	907.59
783.598	18.77
783.987	12.63
784.376	1177.92
784.765	639.31
785.154	-11.95
785.544	-183.98
785.933	1059.14
786.324	602.44
786.714	149.84
787.105	-192.17
787.496	862.54
787.888	528.72
788.279	-200.36
788.671	-196.26
789.064	747.85
789.456	921.93
789.849	-315.05
790.242	-372.39
790.636	520.53
791.03	948.55
791.424	-181.93
791.818	407.89
792.213	1116.48
792.608	842.06
793.004	121.17
793.399	-390.82
793.795	831.82
794.192	612.68
794.588	-208.55
794.985	-313
795.382	811.34
795.78	680.27
796.178	-87.72
796.576	-159.4
796.974	1270.08
797.373	760.14
797.772	-226.98
798.172	-171.69
798.571	743.75
798.971	1089.86
799.372	-100.01
799.772	-110.25
800.173	1038.66
800.574	713.03
800.976	-159.4
801.378	-417.44
801.78	397.65
802.182	182.61
802.585	-18.09
802.988	-226.98
803.392	348.5
803.795	397.65
804.199	-272.04
804.604	-138.92
805.008	807.24
805.413	1139.01
805.819	-153.26
806.224	-384.68
806.63	651.6
807.036	719.18
807.443	-65.19
807.85	-83.63
808.257	848.2
808.664	661.84
809.072	155.99
809.48	-7.85
809.889	923.98
810.297	905.54
810.706	88.4
811.116	-181.93
811.526	541.01
811.936	549.2
812.346	-298.66
812.757	-167.59
813.167	543.05
813.579	483.66
813.99	-73.39
814.402	-325.29
814.814	1319.23
815.227	479.57
815.64	-421.54
816.053	-220.84
816.467	889.16
816.88	708.94
817.294	92.5
817.709	-102.06
818.124	567.63
818.539	1112.39
818.954	31.06
819.37	59.73
819.786	270.67
820.202	860.49
820.619	-632.48
821.036	-351.91
821.453	1063.24
821.871	618.83
822.289	-364.2
822.707	-310.95
823.126	770.38
823.545	344.4
823.964	-204.46
824.384	-267.94
824.804	407.89
825.224	835.91
825.645	20.82
826.065	-386.72
826.487	950.6
826.908	899.4
827.33	-278.18
827.752	170.32
828.175	760.14
828.598	946.5
829.021	135.51
829.444	446.8
829.868	774.47
830.292	285.01
830.717	-386.72
831.142	-358.05
831.567	358.74
831.992	545.1
832.418	117.08
832.844	-370.34
833.27	637.26
833.697	532.81
834.124	-573.09
834.552	-515.75
834.979	1098.05
835.408	784.71
835.836	-437.92
836.265	-212.65
836.694	450.89
837.123	790.86
837.553	-511.65
837.983	-571.04
838.413	831.82
838.844	805.19
839.275	-470.69
839.706	-126.63
840.138	1216.83
840.57	291.15
841.003	-294.57
841.435	-159.4
841.868	479.57
842.302	362.83
842.735	-214.7
843.169	-372.39
843.604	667.98
844.039	678.22
844.474	-343.72
844.909	-358.05
845.345	878.92
845.781	663.88
846.217	-345.77
846.654	-482.98
847.091	713.03
847.528	373.07
847.966	-419.49
848.404	-302.76
848.842	1175.88
849.281	-130.73
849.72	-241.32
850.16	-466.6
850.599	391.5
851.039	207.19
851.48	-11.95
851.921	-331.43
852.362	606.54
852.803	923.98
853.245	-544.42
853.687	-310.95
854.129	850.25
854.572	317.78
855.015	-521.89
855.459	-462.5
855.903	131.41
856.347	688.46
856.791	-335.53
857.236	-421.54
857.681	1061.19
858.127	1333.57
858.572	-48.81
859.019	-394.92
859.465	788.81
859.912	561.48
860.359	-558.75
860.807	-474.79
861.255	270.67
861.703	799.05
862.151	-343.72
862.6	61.78
863.05	590.16
863.499	223.57
863.949	-343.72
864.4	-521.89
864.85	958.79
865.301	741.71
865.752	-470.69
866.204	-333.48
866.656	258.39
867.109	868.68
867.561	-399.01
868.014	-177.83
868.468	708.94
868.921	635.21
869.376	-323.24
869.83	-356.01
870.285	432.46
870.74	248.15
871.195	-339.62
871.651	-337.57
872.107	1038.66
872.564	381.26
873.021	-552.61
873.478	-607.91
873.936	758.09
874.394	801.1
874.852	-429.73
875.31	-261.8
875.769	450.89
876.229	1016.13
876.688	-134.82
877.148	-370.34
877.609	450.89
878.069	295.25
878.531	-206.5
878.992	-519.84
879.454	426.32
879.916	446.8
880.378	-310.95
880.841	-470.69
881.304	-11.95
881.768	168.27
882.232	-544.42
882.696	-313
883.161	186.71
883.626	356.69
884.091	-364.2
884.557	-405.16
885.023	133.46
885.489	739.66
885.956	-659.1
886.423	-525.99
886.89	-32.43
887.358	635.21
887.826	-454.31
888.295	-376.48
888.763	213.33
889.233	1149.25
889.702	-392.87
890.172	-491.17
890.642	352.59
891.113	282.96
891.584	-136.87
892.055	-368.29
892.527	641.36
892.999	872.78
893.472	-456.36
893.944	-286.37
894.417	459.09
894.891	176.47
895.365	-259.75
895.839	-272.04
896.314	557.39
896.789	-296.61
897.264	-454.31
897.74	-634.53
898.216	766.28
898.692	612.68
899.169	-525.99
899.646	-458.4
900.123	530.77
900.601	991.56
901.079	-491.17
901.558	-378.53
902.037	659.79
902.516	432.46
902.996	-642.72
903.476	-593.57
903.956	244.05
904.437	739.66
904.918	-528.03
905.399	-638.62
905.881	751.95
906.363	674.12
906.846	-593.57
907.329	-384.68
907.812	-18.09
908.296	514.38
908.78	-577.19
909.264	-583.33
909.749	239.95
910.234	737.61
910.719	-577.19
911.205	-233.13
911.691	-95.91
912.178	506.19
912.665	-93.87
913.152	-487.08
913.64	196.95
914.128	600.4
914.616	-456.36
915.105	-368.29
915.594	463.18
916.084	981.32
916.574	-345.77
917.064	-618.15
917.555	-26.28
918.046	590.16
918.537	-24.23
919.029	-904.86
919.521	242
920.013	966.98
920.506	-399.01
920.999	-624.29
921.493	676.17
921.987	137.56
922.481	-290.47
922.976	-503.46
923.471	225.62
923.967	454.99
924.462	-274.09
924.959	-337.57
925.455	588.11
925.952	399.7
926.449	-503.46
926.947	-532.13
927.445	366.93
927.944	401.74
928.442	-732.83
928.942	-747.17
929.441	737.61
929.941	117.08
930.442	-528.03
930.942	-509.6
931.443	727.37
931.945	-104.11
932.447	-650.91
932.949	-497.32
933.451	340.3
933.954	295.25
934.458	-372.39
934.961	-601.76
935.465	180.56
935.97	151.89
936.475	-339.62
936.98	-593.57
937.486	-138.92
937.992	112.98
938.498	-550.56
939.005	-456.36
939.512	184.66
940.019	428.37
940.527	-364.2
941.035	-224.94
941.544	543.05
942.053	237.91
942.562	-192.17
943.072	-198.31
943.582	579.92
944.093	233.81
944.604	-638.62
945.115	-437.92
945.627	586.06
946.139	921.93
946.651	-507.55
947.164	-335.53
947.677	467.28
948.191	393.55
948.705	-642.72
949.219	-583.33
949.734	278.87
950.249	563.53
950.765	-564.9
951.281	-511.65
951.797	1466.69
952.314	696.65
952.831	-560.8
953.348	-769.69
953.866	661.84
954.384	262.48
954.903	-542.37
955.422	-724.64
955.941	291.15
956.461	350.54
956.981	-593.57
957.502	-329.38
958.023	526.67
958.544	418.13
959.066	-458.4
959.588	-663.2
960.11	8.53
960.633	805.19
961.156	-511.65
961.68	-435.88
962.204	774.47
962.729	-20.14
963.253	-509.6
963.779	-22.19
964.304	487.76
964.83	837.96
965.357	-777.89
965.883	-439.97
966.411	332.11
966.938	512.33
967.466	-454.31
967.994	-798.37
968.523	90.45
969.052	835.91
969.582	-460.45
970.112	-587.43
970.642	37.2
971.173	799.05
971.704	-599.71
972.235	-405.16
972.767	579.92
973.3	364.88
973.832	-401.06
974.365	-788.13
974.899	414.03
975.433	502.09
975.967	-683.68
976.502	-323.24
977.037	364.88
977.572	903.5
978.108	-648.86
978.644	-655.01
979.181	1040.71
979.718	756.04
980.255	-972.44
980.793	-411.3
981.331	-321.19
981.87	774.47
982.409	-444.07
982.948	-370.34
983.488	266.58
984.028	840.01
984.569	-444.07
985.11	-495.27
985.651	692.55
986.193	479.57
986.735	-655.01
987.278	-540.32
987.821	-167.59
988.364	219.47
988.908	-421.54
989.452	-622.24
989.997	-331.43
990.542	473.42
991.088	-585.38
991.633	-196.26
992.18	221.52
992.726	-136.87
993.273	-433.83
993.821	-366.25
994.369	299.34
994.917	637.26
995.465	-683.68
996.014	-773.79
996.564	608.59
997.114	76.12
997.664	-290.47
998.215	-681.63
998.766	473.42
999.317	-112.3
999.869	-405.16
1000.421	-695.97
1000.974	530.77
1001.527	700.75
1002.081	-624.29
1002.635	-288.42
1003.189	340.3
1003.744	725.32
1004.299	-755.36
1004.854	-519.84
1005.41	801.1
1005.967	194.9
1006.523	-497.32
1007.081	-444.07
1007.638	426.32
1008.196	500.05
1008.755	-628.39
1009.313	-384.68
1009.873	594.25
1010.432	-63.15
1010.992	-347.81
1011.553	-405.16
1012.114	362.83
1012.675	4.44
1013.237	-384.68
1013.799	-216.74
1014.361	598.35
1014.924	-40.62
1015.487	-706.21
1016.051	-499.36
1016.615	659.79
1017.18	438.61
1017.745	-667.3
1018.31	-208.55
1018.876	815.43
1019.442	385.36
1020.009	-503.46
1020.576	-777.89
1021.143	323.92
1021.711	663.88
1022.28	-468.64
1022.848	-474.79
1023.417	790.86
1023.987	299.34
1024.557	-558.75
1025.127	-583.33
1025.698	-75.43
1026.269	-75.43
1026.841	-810.65
1027.413	-351.91
1027.985	231.76
1028.558	338.26
1029.131	-540.32
1029.705	-435.88
1030.279	405.84
1030.854	407.89
1031.429	-708.26
1032.004	-267.94
1032.58	631.12
1033.156	-24.23
1033.733	-659.1
1034.31	-601.76
1034.887	594.25
1035.465	661.84
1036.043	-949.92
1036.622	-513.7
1037.201	168.27
1037.781	667.98
1038.361	-599.71
1038.941	-700.06
1039.522	407.89
1040.103	786.76
1040.685	-601.76
1041.267	-290.47
1041.85	1194.31
1042.433	594.25
1043.016	-622.24
1043.6	-413.35
1044.184	-313
1044.769	612.68
1045.354	-474.79
1045.939	-552.61
1046.525	450.89
1047.111	360.78
1047.698	-411.3
1048.285	-716.45
1048.873	549.2
1049.461	-159.4
1050.049	-579.23
1050.638	-634.53
1051.228	78.16
1051.817	792.91
1052.407	-585.38
1052.998	-286.37
1053.589	418.13
1054.18	618.83
1054.772	-876.19
1055.365	-593.57
1055.957	438.61
1056.55	180.56
1057.144	-437.92
1057.738	-657.06
1058.333	145.75
1058.927	22.87
1059.523	-476.84
1060.118	-759.46
1060.715	63.83
1061.311	541.01
1061.908	-687.78
1062.506	-435.88
1063.103	575.82
1063.702	-9.9
1064.3	-892.57
1064.9	-747.17
1065.499	831.82
1066.099	-44.71
1066.7	-616.1
1067.301	-814.75
1067.902	686.41
1068.504	708.94
1069.106	-362.15
1069.709	-413.35
1070.312	719.18
1070.915	512.33
1071.519	-671.39
1072.123	-394.92
1072.728	567.63
1073.333	291.15
1073.939	-296.61
1074.545	-501.41
1075.152	522.57
1075.759	160.08
1076.366	-695.97
1076.974	-327.33
1077.582	328.02
1078.191	598.35
1078.8	-458.4
1079.41	-894.62
1080.02	282.96
1080.63	348.5
1081.241	-126.63
1081.852	-892.57
1082.464	373.07
1083.076	366.93
1083.689	-595.62
1084.302	-568.99
1084.915	713.03
1085.529	438.61
1086.144	-620.19
1086.759	-513.7
1087.374	22.87
1087.99	266.58
1088.606	-712.35
1089.222	-581.28
1089.839	647.5
1090.457	274.77
1091.075	-480.93
1091.693	-781.98
1092.312	446.8
1092.931	827.72
1093.551	-591.52
1094.171	-120.49
1094.792	418.13
1095.413	201.04
1096.034	-507.55
1096.656	-595.62
1097.278	553.29
1097.901	309.58
1098.524	-618.15
1099.148	-261.8
1099.772	897.35
1100.397	299.34
1101.022	-753.31
1101.647	-603.81
1102.273	405.84
1102.899	657.74
1103.526	-937.63
1104.153	-386.72
1104.781	676.17
1105.409	655.69
1106.038	-714.4
1106.667	-814.75
1107.296	260.43
1107.926	170.32
1108.556	-183.98
1109.187	-509.6
1109.818	280.91
1110.45	659.79
1111.082	-509.6
1111.715	-536.23
1112.348	399.7
1112.981	209.23
1113.615	-257.7
1114.25	-399.01
1114.885	250.19
1115.52	227.67
1116.156	-773.79
1116.792	-487.08
1117.428	495.95
1118.066	176.47
1118.703	-339.62
1119.341	-591.52
1119.98	608.59
1120.618	846.15
1121.258	-663.2
1121.898	-771.74
1122.538	325.97
1123.179	-102.06
1123.82	-503.46
1124.461	-421.54
1125.103	684.36
1125.746	176.47
1126.389	-487.08
1127.032	-695.97
1127.676	536.91
1128.32	749.9
1128.965	-431.78
1129.61	-386.72
1130.256	153.94
1130.902	635.21
1131.549	-560.8
1132.196	-558.75
1132.844	631.12
1133.491	672.08
1134.14	-515.75
1134.789	-552.61
1135.438	1028.42
1136.088	127.32
1136.738	-712.35
1137.389	-716.45
1138.04	481.61
1138.692	926.02
1139.344	-628.39
1139.996	-519.84
1140.649	387.41
1141.303	616.78
1141.957	-419.49
1142.611	-528.03
1143.266	420.17
1143.921	391.5
1144.577	-437.92
1145.233	-519.84
1145.89	102.74
1146.547	608.59
1147.205	-751.26
1147.863	-437.92
1148.521	407.89
1149.18	565.58
1149.84	-749.22
1150.5	-712.35
1151.16	233.81
1151.821	614.73
1152.482	-540.32
1153.144	-116.39
1153.806	375.12
1154.469	428.37
1155.132	-810.65
1155.796	-446.12
1156.46	602.44
1157.124	938.31
1157.789	-642.72
1158.455	-614.05
1159.121	358.74
1159.787	-57
1160.454	-474.79
1161.121	-466.6
1161.789	205.14
1162.457	612.68
1163.126	-450.21
1163.795	-534.18
1164.465	348.5
1165.135	258.39
1165.806	-487.08
1166.477	-444.07
1167.148	-253.61
1167.82	452.94
1168.493	-798.37
1169.166	-356.01
1169.839	6.49
1170.513	414.03
1171.187	-720.54
1171.862	-632.48
1172.537	323.92
1173.213	444.75
1173.889	-630.43
1174.566	-628.39
1175.243	688.46
1175.921	239.95
1176.599	-429.73
1177.278	-310.95
1177.957	-52.91
1178.636	774.47
1179.316	-339.62
1179.997	-741.02
1180.678	454.99
1181.359	729.42
1182.041	-632.48
1182.723	-773.79
1183.406	651.6
1184.089	162.13
1184.773	-689.82
1185.457	-775.84
1186.142	176.47
1186.827	1085.76
1187.513	-712.35
1188.199	-233.13
1188.886	112.98
1189.573	362.83
1190.26	-538.27
1190.948	-642.72
1191.637	0.34
1192.326	123.22
1193.015	-718.5
1193.705	-802.46
1194.396	74.07
1195.087	276.82
1195.778	-343.72
1196.47	-753.31
1197.162	375.12
1197.855	489.81
1198.548	-544.42
1199.242	-824.99
1199.936	506.19
1200.631	645.45
1201.326	-802.46
1202.022	-659.1
1202.718	624.97
1203.415	377.17
1204.112	-876.19
1204.81	-568.99
1205.508	121.17
1206.206	954.69
1206.905	-663.2
1207.605	-659.1
1208.305	225.62
1209.005	340.3
1209.706	-667.3
1210.408	-677.54
1211.11	258.39
1211.812	401.74
1212.515	-587.43
1213.218	-609.95
1213.922	336.21
1214.627	274.77
1215.331	-493.22
1216.037	-552.61
1216.743	-1.71
1217.449	448.85
1218.156	-384.68
1218.863	-470.69
1219.571	276.82
1220.279	774.47
1220.988	-773.79
1221.697	-552.61
1222.406	543.05
1223.117	69.97
1223.827	-548.51
1224.538	-548.51
1225.25	287.06
1225.962	362.83
1226.675	-859.81
1227.388	-474.79
1228.101	176.47
1228.815	37.2
1229.53	-538.27
1230.245	-466.6
1230.961	409.94
1231.677	186.71
1232.393	-573.09
1233.11	-511.65
1233.828	1016.13
1234.546	377.17
1235.264	-532.13
1235.983	-306.85
1236.702	1053
1237.422	319.82
1238.143	-347.81
1238.864	-655.01
1239.585	600.4
1240.307	-210.6
1241.029	-716.45
1241.752	-241.32
1242.476	561.48
1243.2	831.82
1243.924	-493.22
1244.649	-540.32
1245.374	618.83
1246.1	909.64
1246.826	-884.38
1247.553	-546.47
1248.28	479.57
1249.008	493.9
1249.737	-681.63
1250.465	-413.35
1251.195	561.48
1251.925	678.22
1252.655	-644.77
1253.386	-315.05
1254.117	135.51
1254.849	121.17
1255.581	-573.09
1256.314	-427.68
1257.047	753.99
1257.781	491.85
1258.515	-673.44
1259.25	-57
1259.985	350.54
1260.721	325.97
1261.457	-380.58
1262.194	-726.69
1262.931	276.82
1263.669	786.76
1264.407	-444.07
1265.146	-632.48
1265.885	352.59
1266.625	143.7
1267.365	-558.75
1268.106	-607.91
1268.847	444.75
1269.589	127.32
1270.331	-425.64
1271.074	-534.18
1271.817	401.74
1272.561	446.8
1273.305	-306.85
1274.05	-425.64
1274.795	354.64
1275.541	381.26
1276.287	-851.61
1277.034	-714.4
1277.781	6.49
1278.529	592.2
1279.277	-757.41
1280.026	-761.5
1280.775	805.19
1281.525	-372.39
1282.275	-792.22
1283.026	-241.32
1283.777	340.3
1284.529	430.41
1285.281	-552.61
1286.034	-833.18
1286.788	766.28
1287.541	387.41
1288.296	-796.32
1289.051	-403.11
1289.806	444.75
1290.562	569.68
1291.318	-632.48
1292.075	-495.27
1292.832	776.52
1293.59	772.43
1294.349	-634.53
1295.108	-564.9
1295.867	981.32
1296.627	424.27
1297.387	-728.74
1298.148	-417.44
1298.91	297.3
1299.672	-38.57
1300.434	-648.86
1301.197	-765.6
1301.961	1358.14
1302.725	262.48
1303.489	-394.92
1304.254	-446.12
1305.02	416.08
1305.786	749.9
1306.552	-904.86
1307.319	-820.89
1308.087	768.33
1308.855	803.15
1309.624	-585.38
1310.393	-423.59
1311.162	-237.22
1311.933	635.21
1312.703	-587.43
1313.474	-347.81
1314.246	180.56
1315.018	594.25
1315.791	-216.74
1316.564	-716.45
1317.338	635.21
1318.112	196.95
1318.887	-738.98
1319.662	-540.32
1320.438	444.75
1321.214	123.22
1321.991	-388.77
1322.769	-630.43
1323.546	348.5
1324.325	-50.86
1325.104	-687.78
1325.883	-499.36
1326.663	-181.93
1327.444	438.61
1328.224	-691.87
1329.006	-454.31
1329.788	307.54
1330.571	307.54
1331.354	-224.94
1332.137	-679.58
1332.921	700.75
1333.706	-42.67
1334.491	-360.1
1335.277	-485.03
1336.063	155.99
1336.849	256.34
1337.637	-646.82
1338.424	-589.47
1339.213	792.91
1340.001	782.67
1340.791	-683.68
1341.581	-351.91
1342.371	446.8
1343.162	299.34
1343.953	-523.94
1344.745	-396.96
1345.537	459.09
1346.33	588.11
1347.124	-616.1
1347.918	-321.19
1348.712	856.39
1349.507	416.08
1350.303	-564.9
1351.099	-509.6
1351.896	84.31
1352.693	-339.62
1353.49	-552.61
1354.289	-536.23
1355.087	506.19
1355.887	776.52
1356.686	-454.31
1357.487	-624.29
1358.288	131.41
1359.089	278.87
1359.891	-233.13
1360.693	-618.15
1361.496	-159.4
1362.3	242
1363.104	-657.06
1363.908	-605.86
1364.713	831.82
1365.519	868.68
1366.325	-597.67
1367.131	-767.65
1367.939	276.82
1368.746	821.58
1369.555	-884.38
1370.363	-458.4
1371.173	911.69
1371.982	1251.65
1372.793	-609.95
1373.604	-841.37
1374.415	581.96
1375.227	710.99
1376.039	-671.39
1376.852	-657.06
1377.666	987.46
1378.48	268.63
1379.295	-718.5
1380.11	-763.55
1380.925	-11.95
1381.742	721.23
1382.558	-544.42
1383.376	-616.1
1384.193	428.37
1385.012	153.94
1385.831	-593.57
1386.65	-650.91
1387.47	272.72
1388.29	135.51
1389.111	-495.27
1389.933	-708.26
1390.755	657.74
1391.578	225.62
1392.401	-765.6
1393.225	-503.46
1394.049	950.6
1394.873	188.75
1395.699	-665.25
1396.525	-507.55
1397.351	594.25
1398.178	37.2
1399.005	-595.62
1399.833	-954.01
1400.662	536.91
1401.491	946.5
1402.321	-593.57
1403.151	-507.55
1403.981	545.1
1404.813	471.37
1405.644	-378.53
1406.477	-646.82
1407.309	266.58
1408.143	1032.52
1408.977	-636.58
1409.811	-507.55
1410.646	872.78
1411.482	790.86
1412.318	-509.6
1413.155	-601.76
1413.992	627.02
1414.829	33.11
1415.668	-616.1
1416.506	-356.01
1417.346	837.96
1418.186	409.94
1419.026	-601.76
1419.867	-904.86
1420.709	622.92
1421.551	536.91
1422.393	-855.71
1423.236	-351.91
1424.08	323.92
1424.924	399.7
1425.769	-626.34
1426.614	-560.8
1427.46	422.22
1428.307	201.04
1429.154	-749.22
1430.001	-681.63
1430.849	235.86
1431.698	287.06
1432.547	-798.37
1433.397	-820.89
1434.247	635.21
1435.098	850.25
1435.949	-566.95
1436.801	-542.37
1437.653	88.4
1438.506	618.83
1439.36	-851.61
1440.214	-695.97
1441.069	473.42
1441.924	328.02
1442.78	-528.03
1443.636	-708.26
1444.493	270.67
1445.35	383.31
1446.208	-470.69
1447.067	-704.16
1447.926	409.94
1448.785	844.1
1449.645	-593.57
1450.506	-698.02
1451.367	373.07
1452.229	-36.52
1453.091	-665.25
1453.954	-323.24
1454.818	215.38
1455.682	319.82
1456.546	-620.19
1457.412	-822.94
1458.277	610.64
1459.143	297.3
1460.01	-415.4
1460.878	-714.4
1461.745	299.34
1462.614	63.83
1463.483	-835.23
1464.352	-411.3
1465.223	719.18
1466.093	600.4
1466.964	-652.96
1467.836	-781.98
1468.709	739.66
1469.581	373.07
1470.455	-513.7
1471.329	-628.39
1472.203	20.82
1473.079	96.6
1473.954	-224.94
1474.831	-732.83
1475.707	168.27
1476.585	160.08
1477.463	-599.71
1478.341	-618.15
1479.22	12.63
1480.1	383.31
1480.98	-812.7
1481.861	-765.6
1482.742	547.15
1483.624	549.2
1484.506	-376.48
1485.389	-612
1486.273	203.09
1487.157	123.22
1488.041	-577.19
1488.926	-724.64
1489.812	442.7
1490.699	356.69
1491.585	-689.82
1492.473	-536.23
1493.361	-65.19
1494.249	248.15
1495.139	-446.12
1496.028	-558.75
1496.919	37.2
1497.809	430.41
1498.701	-634.53
1499.593	-655.01
1500.485	334.16
1501.378	688.46
1502.272	-280.23
1503.166	-597.67
1504.061	809.29
1504.956	457.04
1505.852	-659.1
1506.749	-777.89
1507.646	569.68
1508.543	362.83
1509.442	-831.13
1510.34	-73.39
1511.24	950.6
1512.14	244.05
1513.04	-618.15
1513.941	-886.43
1514.843	1139.01
1515.745	78.16
1516.648	-560.8
1517.551	-810.65
1518.455	-30.38
1519.359	-214.7
1520.264	-659.1
1521.17	-820.89
1522.076	225.62
1522.983	588.11
1523.89	-706.21
1524.798	-462.5
1525.706	346.45
1526.615	1286.47
1527.525	-808.61
1528.435	-485.03
1529.346	524.62
1530.257	33.11
1531.169	-329.38
1532.081	-751.26
1532.994	1034.57
1533.908	164.18
1534.822	-667.3
1535.737	-544.42
1536.652	407.89
1537.568	340.3
1538.484	-601.76
1539.401	-984.73
1540.319	909.64
1541.237	-93.87
1542.156	-765.6
1543.075	-693.92
1543.995	950.6
1544.916	962.89
1545.837	-747.17
1546.758	-683.68
1547.68	598.35
1548.603	631.12
1549.527	-470.69
1550.451	-761.5
1551.375	389.46
1552.3	819.53
1553.226	-921.24
1554.152	-736.93
1555.079	692.55
1556.006	325.97
1556.934	-442.02
1557.863	-499.36
1558.792	899.4
1559.722	74.07
1560.652	-444.07
1561.583	-835.23
1562.514	-44.71
1563.446	98.64
1564.379	-941.72
1565.312	-462.5
1566.246	657.74
1567.18	395.6
1568.115	-560.8
1569.051	-663.2
1569.987	753.99
1570.924	962.89
1571.861	-763.55
1572.799	-536.23
1573.737	631.12
1574.676	287.06
1575.616	-548.51
1576.556	-738.98
1577.497	-1.71
1578.438	63.83
1579.38	-583.33
1580.323	-636.58
1581.266	487.76
1582.21	809.29
1583.154	-718.5
1584.099	-728.74
1585.044	504.14
1585.99	643.4
1586.937	-296.61
1587.884	-544.42
1588.832	330.06
1589.78	969.03
1590.729	-634.53
1591.679	-313
1592.629	334.16
1593.58	495.95
1594.531	-577.19
1595.483	-468.64
1596.435	201.04
1597.388	127.32
1598.342	-294.57
1599.296	-462.5
1600.251	549.2
1601.207	794.95
1602.163	-542.37
1603.119	-614.05
1604.077	876.87
1605.034	833.86
1605.993	-409.25
1606.952	37.2
1607.911	213.33
1608.872	409.94
1609.832	-732.83
1610.794	-790.17
1611.756	565.58
1612.718	528.72
1613.681	-261.8
1614.645	-587.43
1615.609	741.71
1616.574	264.53
1617.54	-149.16
1618.506	-638.62
1619.472	706.89
1620.44	719.18
1621.408	-136.87
1622.376	-372.39
1623.345	432.46
1624.315	831.82
1625.285	-478.88
1626.256	-519.84
1627.227	506.19
1628.199	-175.78
1629.172	-339.62
1630.145	-288.42
1631.119	463.18
1632.094	1032.52
1633.069	-519.84
1634.044	-345.77
1635.02	266.58
1635.997	745.8
1636.975	-530.08
1637.953	-806.56
1638.931	979.27
1639.911	4.44
1640.89	-671.39
1641.871	-507.55
1642.852	577.87
1643.833	498
1644.816	-700.06
1645.798	-872.09
1646.782	991.56
1647.766	86.36
1648.75	-695.97
1649.736	-591.52
1650.721	-9.9
1651.708	432.46
1652.695	-622.24
1653.682	-464.55
1654.671	362.83
1655.66	596.3
1656.649	-634.53
1657.639	-624.29
1658.63	6.49
1659.621	233.81
1660.613	-814.75
1661.605	-851.61
1662.598	250.19
1663.592	155.99
1664.586	-913.05
1665.581	-745.12
1666.576	258.39
1667.572	358.74
1668.569	-538.27
1669.566	-722.59
1670.564	483.66
1671.563	770.38
1672.562	-698.02
1673.562	-313
1674.562	414.03
1675.563	495.95
1676.564	-347.81
1677.566	-614.05
1678.569	889.16
1679.572	-362.15
1680.576	-452.26
1681.581	-624.29
1682.586	180.56
1683.592	612.68
1684.598	-575.14
1685.605	-489.12
1686.613	563.53
1687.621	104.79
1688.63	-454.31
1689.639	-401.06
1690.649	221.52
1691.66	311.63
1692.671	-499.36
1693.683	-657.06
1694.696	16.73
1695.709	350.54
1696.722	-609.95
1697.737	-450.21
1698.752	123.22
1699.767	551.24
1700.783	-532.13
1701.8	-417.44
1702.818	352.59
1703.836	-73.39
1704.854	-741.02
1705.873	-612
1706.893	225.62
1707.914	266.58
1708.935	-573.09
1709.956	-607.91
1710.979	364.88
1712.002	285.01
1713.025	-632.48
1714.049	-556.71
1715.074	391.5
1716.099	543.05
1717.125	-745.12
1718.152	-708.26
1719.179	45.4
1720.207	674.12
1721.235	-91.82
1722.265	-188.07
1723.294	381.26
1724.325	178.51
1725.355	-380.58
1726.387	-503.46
1727.419	307.54
1728.452	536.91
1729.485	-503.46
1730.519	-790.17
1731.554	24.92
1732.589	405.84
1733.625	-691.87
1734.662	-515.75
1735.699	-22.19
1736.736	598.35
1737.775	-616.1
1738.814	-624.29
1739.853	155.99
1740.894	227.67
1741.934	-532.13
1742.976	-749.22
1744.018	553.29
1745.061	291.15
1746.104	-659.1
1747.148	-601.76
1748.193	332.11
1749.238	334.16
1750.284	-485.03
1751.33	-714.4
1752.377	454.99
1753.425	975.17
1754.473	-556.71
1755.522	-558.75
1756.572	782.67
1757.622	538.96
1758.673	-695.97
1759.724	-433.83
1760.776	700.75
1761.829	706.89
1762.882	-298.66
1763.936	-624.29
1764.991	137.56
1766.046	932.17
1767.102	-366.25
1768.158	-691.87
1769.215	348.5
1770.273	489.81
1771.331	-454.31
1772.39	-634.53
1773.45	401.74
1774.51	508.24
1775.571	-749.22
1776.632	-239.27
1777.694	344.4
1778.757	522.57
1779.82	-341.67
1780.884	-417.44
1781.949	221.52
1783.014	604.49
1784.08	-810.65
1785.147	-581.28
1786.214	168.27
1787.282	121.17
1788.35	-364.2
1789.419	-396.96
1790.489	766.28
1791.559	385.36
1792.63	-663.2
1793.702	-372.39
1794.774	244.05
1795.847	555.34
1796.92	-224.94
1797.994	-446.12
1799.069	553.29
1800.144	1229.12
1801.22	-595.62
1802.297	-331.43
1803.374	45.4
1804.452	371.02
1805.531	-683.68
1806.61	-384.68
1807.69	536.91
1808.77	-145.06
1809.851	-413.35
1810.933	-808.61
1812.015	622.92
1813.098	49.49
1814.182	-552.61
1815.266	-452.26
1816.351	340.3
1817.437	385.36
1818.523	-493.22
1819.61	-532.13
1820.697	244.05
1821.785	1233.22
1822.874	-456.36
1823.963	-591.52
1825.053	242
1826.144	432.46
1827.235	-525.99
1828.327	-468.64
1829.42	375.12
1830.513	-118.44
1831.607	-751.26
1832.701	-513.7
1833.796	207.19
1834.892	782.67
1835.989	-687.78
1837.086	-700.06
1838.183	348.5
1839.282	250.19
1840.381	-548.51
1841.48	-575.14
1842.581	418.13
1843.682	907.59
1844.783	-313
1845.885	-335.53
1846.988	700.75
1848.092	489.81
1849.196	-417.44
1850.301	-460.45
1851.406	94.55
1852.512	1126.72
1853.619	-442.02
1854.726	-679.58
1855.834	55.64
1856.943	702.79
1858.052	-638.62
1859.162	-525.99
1860.273	405.84
1861.384	807.24
1862.496	-556.71
1863.608	-599.71
1864.721	424.27
1865.835	115.03
1866.95	-634.53
1868.065	-605.86
1869.181	186.71
1870.297	598.35
1871.414	-313
1872.532	-736.93
1873.65	227.67
1874.769	209.23
1875.889	-665.25
1877.009	-216.74
1878.13	438.61
1879.252	876.87
1880.374	-423.59
1881.497	-591.52
1882.62	274.77
1883.745	229.71
1884.87	-763.55
1885.995	-786.08
1887.121	172.37
1888.248	80.21
1889.376	-736.93
1890.504	-603.81
1891.632	368.98
1892.762	198.99
1893.892	-655.01
1895.023	-353.96
1896.154	31.06
1897.286	282.96
1898.419	-626.34
1899.552	-532.13
1900.686	602.44
1901.821	512.33
1902.956	-601.76
1904.092	-468.64
1905.229	846.15
1906.366	504.14
1907.504	-634.53
1908.643	-601.76
1909.782	557.39
