Data from led_USB4H112691__5__11-28-27-542.txt Node

Date: Tue Dec 17 11:28:27 CET 2024
User: Etudiants TP
Spectrometer: USB4H11269
Trigger mode: 4
Integration Time (sec): 1.000000E0
Scans to average: 1
Electric dark correction enabled: true
Nonlinearity correction enabled: false
Boxcar width: 0
XAxis mode: Wavelengths
Number of Pixels in Spectrum: 3648
>>>>>Begin Spectral Data<<<<<
286.377	-1582.74
286.631	-1582.74
286.884	-1582.74
287.138	-1646.23
287.391	-1601.17
287.644	-816.8
287.896	-566.95
288.149	747.85
288.401	420.17
288.653	-505.51
288.905	-396.96
289.157	780.62
289.409	223.57
289.661	-358.05
289.912	-714.4
290.163	448.85
290.414	737.61
290.665	-636.58
290.916	-628.39
291.166	588.11
291.417	1022.28
291.667	-618.15
291.917	-91.82
292.167	315.73
292.417	336.21
292.666	-663.2
292.916	-685.73
293.165	514.38
293.414	557.39
293.663	-874.14
293.912	-743.07
294.16	739.66
294.408	643.4
294.657	-716.45
294.905	-435.88
295.153	579.92
295.4	633.16
295.648	-800.41
295.895	-665.25
296.143	133.46
296.39	794.95
296.637	-554.66
296.884	-784.03
297.13	538.96
297.377	741.71
297.623	-497.32
297.869	-298.66
298.115	735.56
298.361	594.25
298.606	-718.5
298.852	-612
299.097	522.57
299.342	911.69
299.587	-374.44
299.832	-452.26
300.077	674.12
300.322	567.63
300.566	-685.73
300.81	-456.36
301.054	637.26
301.298	805.19
301.542	-159.4
301.785	-333.48
302.029	915.78
302.272	751.95
302.515	-730.78
302.758	-480.93
303.001	758.09
303.244	663.88
303.486	-470.69
303.729	-845.47
303.971	926.02
304.213	780.62
304.455	-769.69
304.696	-292.52
304.938	401.74
305.179	686.41
305.421	-374.44
305.662	-394.92
305.903	354.64
306.143	313.68
306.384	-476.84
306.625	-419.49
306.865	385.36
307.105	242
307.345	-464.55
307.585	-497.32
307.825	47.44
308.064	760.14
308.304	-607.91
308.543	-798.37
308.782	600.4
309.021	756.04
309.26	-276.13
309.499	-511.65
309.737	995.65
309.976	686.41
310.214	-704.16
310.452	-577.19
310.69	1239.36
310.928	278.87
311.165	-603.81
311.403	-562.85
311.64	749.9
311.878	442.7
312.115	-534.18
312.351	-415.4
312.588	444.75
312.825	944.45
313.061	-710.3
313.298	14.68
313.534	256.34
313.77	756.04
314.006	-528.03
314.241	-597.67
314.477	682.31
314.713	1225.03
314.948	-454.31
315.183	205.14
315.418	874.82
315.653	536.91
315.888	-689.82
316.122	-388.77
316.357	227.67
316.591	909.64
316.825	-566.95
317.059	-550.56
317.293	944.45
317.527	467.28
317.76	-616.1
317.994	-394.92
318.227	805.19
318.46	1091.91
318.693	-669.34
318.926	-452.26
319.159	133.46
319.391	516.43
319.624	-695.97
319.856	-521.89
320.088	780.62
320.321	618.83
320.552	-341.67
320.784	-616.1
321.016	860.49
321.247	-11.95
321.479	-333.48
321.71	-341.67
321.941	-145.06
322.172	1202.5
322.403	-642.72
322.633	-345.77
322.864	885.06
323.094	233.81
323.325	-50.86
323.555	-685.73
323.785	219.47
324.014	242
324.244	-503.46
324.474	-296.61
324.703	909.64
324.933	846.15
325.162	-411.3
325.391	-800.41
325.62	-71.34
325.848	756.04
326.077	-573.09
326.306	-386.72
326.534	743.75
326.762	958.79
326.99	-632.48
327.218	-237.22
327.446	829.77
327.674	8.53
327.901	-634.53
328.129	-716.45
328.356	745.8
328.583	223.57
328.81	-681.63
329.037	-405.16
329.264	454.99
329.491	846.15
329.717	-372.39
329.944	-642.72
330.17	280.91
330.396	166.23
330.622	-669.34
330.848	-288.42
331.074	434.51
331.299	1470.78
331.525	-671.39
331.75	-534.18
331.975	813.38
332.201	215.38
332.426	-935.58
332.65	-603.81
332.875	-120.49
333.1	397.65
333.324	-677.54
333.549	-509.6
333.773	344.4
333.997	448.85
334.221	-669.34
334.445	-667.3
334.668	567.63
334.892	950.6
335.116	-419.49
335.339	-589.47
335.562	-9.9
335.785	448.85
336.008	-212.65
336.231	-732.83
336.454	-128.68
336.676	954.69
336.899	-472.74
337.121	-257.7
337.343	76.12
337.566	575.82
337.788	-452.26
338.009	-648.86
338.231	151.89
338.453	366.93
338.674	3207.46
338.896	-446.12
339.117	-54.95
339.338	1073.48
339.559	-683.68
339.78	-583.33
340.001	26.96
340.222	909.64
340.442	-554.66
340.663	-259.75
340.883	717.13
341.103	362.83
341.323	-548.51
341.543	-411.3
341.763	749.9
341.983	203.09
342.202	-730.78
342.422	-603.81
342.641	1169.73
342.861	354.64
343.08	-192.17
343.299	-667.3
343.518	620.88
343.736	620.88
343.955	-575.14
344.174	-585.38
344.392	803.15
344.61	69.97
344.829	-708.26
345.047	-505.51
345.265	559.44
345.483	768.33
345.7	-587.43
345.918	-231.08
346.136	29.01
346.353	831.82
346.57	-677.54
346.788	-655.01
347.005	285.01
347.222	20.82
347.438	-71.34
347.655	-548.51
347.872	141.65
348.088	1163.59
348.305	-331.43
348.521	-603.81
348.737	35.16
348.953	880.97
349.169	-190.12
349.385	-407.2
349.601	407.89
349.817	-102.06
350.032	-198.31
350.248	-284.33
350.463	1198.4
350.678	-339.62
350.893	-650.91
351.108	-620.19
351.323	166.23
351.538	719.18
351.753	-634.53
351.967	-540.32
352.182	749.9
352.396	207.19
352.61	-698.02
352.824	-525.99
353.038	428.37
353.252	717.13
353.466	-480.93
353.68	-521.89
353.894	317.78
354.107	178.51
354.32	-386.72
354.534	-636.58
354.747	657.74
354.96	-1.71
355.173	-362.15
355.386	-755.36
355.599	477.52
355.811	346.45
356.024	-667.3
356.236	-358.05
356.449	262.48
356.661	266.58
356.873	-704.16
357.085	-798.37
357.297	641.36
357.509	635.21
357.721	-534.18
357.933	-546.47
358.144	192.85
358.356	325.97
358.567	-362.15
358.778	-749.22
358.989	805.19
359.2	168.27
359.411	-468.64
359.622	-394.92
359.833	506.19
360.044	215.38
360.254	-480.93
360.465	-718.5
360.675	428.37
360.885	338.26
361.096	-704.16
361.306	-528.03
361.516	282.96
361.726	338.26
361.935	-863.9
362.145	-513.7
362.355	495.95
362.564	528.72
362.774	-798.37
362.983	-767.65
363.192	762.19
363.401	203.09
363.61	-657.06
363.819	-292.52
364.028	469.33
364.237	866.63
364.445	-579.23
364.654	-292.52
364.862	473.42
365.071	223.57
365.279	-403.11
365.487	-657.06
365.695	559.44
365.903	293.2
366.111	-702.11
366.319	-507.55
366.527	547.15
366.734	301.39
366.942	-413.35
367.149	-665.25
367.357	-476.84
367.564	962.89
367.771	-419.49
367.978	-657.06
368.185	43.35
368.392	313.68
368.599	-329.38
368.806	-523.94
369.013	-59.05
369.219	436.56
369.426	-798.37
369.632	-177.83
369.838	1153.35
370.044	541.01
370.251	-542.37
370.457	-554.66
370.663	829.77
370.868	332.11
371.074	-530.08
371.28	-618.15
371.485	-208.55
371.691	631.12
371.896	-583.33
372.102	-632.48
372.307	1048.9
372.512	809.29
372.717	-612
372.922	-190.12
373.127	133.46
373.332	446.8
373.537	-394.92
373.741	-571.04
373.946	500.05
374.151	198.99
374.355	-741.02
374.559	-472.74
374.764	215.38
374.968	-296.61
375.172	-667.3
375.376	-333.48
375.58	411.98
375.784	4.44
375.987	-702.11
376.191	-542.37
376.395	139.6
376.598	209.23
376.802	-634.53
377.005	-151.21
377.208	211.28
377.412	74.07
377.615	-716.45
377.818	-568.99
378.021	223.57
378.224	-124.58
378.426	-628.39
378.629	-736.93
378.832	745.8
379.034	403.79
379.237	-763.55
379.439	-855.71
379.642	739.66
379.844	506.19
380.046	-798.37
380.248	-683.68
380.45	-112.3
380.652	-171.69
380.854	-517.79
381.056	-638.62
381.258	330.06
381.459	403.79
381.661	-714.4
381.862	-331.43
382.064	-212.65
382.265	194.9
382.467	-702.11
382.668	-511.65
382.869	633.16
383.07	393.55
383.271	-456.36
383.472	-624.29
383.673	670.03
383.874	313.68
384.074	-505.51
384.275	-741.02
384.476	543.05
384.676	1071.43
384.876	-677.54
385.077	-562.85
385.277	702.79
385.477	944.45
385.677	-628.39
385.878	-468.64
386.078	225.62
386.278	297.3
386.477	-249.51
386.677	-214.7
386.877	444.75
387.077	727.37
387.276	-390.82
387.476	-464.55
387.675	295.25
387.875	973.13
388.074	-614.05
388.273	-437.92
388.472	811.34
388.671	-212.65
388.87	-622.24
389.069	-169.64
389.268	-114.34
389.467	61.78
389.666	-702.11
389.865	-255.65
390.063	586.06
390.262	624.97
390.461	-603.81
390.659	-663.2
390.857	751.95
391.056	735.56
391.254	-693.92
391.452	-579.23
391.65	805.19
391.849	551.24
392.047	-442.02
392.245	-186.02
392.442	186.71
392.64	452.94
392.838	-280.23
393.036	-442.02
393.233	411.98
393.431	229.71
393.629	-837.28
393.826	-509.6
394.023	188.75
394.221	-71.34
394.418	-407.2
394.615	-257.7
394.812	-85.67
395.01	663.88
395.207	-603.81
395.404	-603.81
395.601	915.78
395.797	493.9
395.994	-693.92
396.191	-458.4
396.388	203.09
396.584	710.99
396.781	-364.2
396.977	-116.39
397.174	602.44
397.37	-63.15
397.567	-374.44
397.763	-609.95
397.959	305.49
398.155	305.49
398.352	-317.09
398.548	-278.18
398.744	467.28
398.94	354.64
399.136	-702.11
399.331	-313
399.527	350.54
399.723	498
399.919	-339.62
400.114	-470.69
400.31	231.76
400.505	608.59
400.701	-480.93
400.896	-485.03
401.092	84.31
401.287	276.82
401.482	-743.07
401.678	-360.1
401.873	588.11
402.068	491.85
402.263	-358.05
402.458	-501.41
402.653	86.36
402.848	469.33
403.043	-437.92
403.237	-708.26
403.432	86.36
403.627	-200.36
403.822	-749.22
404.016	-497.32
404.211	94.55
404.405	624.97
404.6	-278.18
404.794	-226.98
404.989	452.94
405.183	190.8
405.377	-294.57
405.571	-54.95
405.766	500.05
405.96	280.91
406.154	-511.65
406.348	-423.59
406.542	506.19
406.736	383.31
406.93	-634.53
407.124	-458.4
407.318	219.47
407.511	366.93
407.705	-282.28
407.899	-528.03
408.092	559.44
408.286	272.72
408.48	-718.5
408.673	-542.37
408.867	69.97
409.06	457.04
409.253	-343.72
409.447	-376.48
409.64	680.27
409.833	555.34
410.026	-308.9
410.22	-337.57
410.413	653.64
410.606	338.26
410.799	-607.91
410.992	-521.89
411.185	260.43
411.378	1012.04
411.571	-388.77
411.764	-419.49
411.956	588.11
412.149	405.84
412.342	-388.77
412.534	-429.73
412.727	588.11
412.92	387.41
413.112	-333.48
413.305	-243.37
413.497	751.95
413.69	561.48
413.882	-308.9
414.075	-218.79
414.267	536.91
414.459	330.06
414.652	-599.71
414.844	-487.08
415.036	379.22
415.228	725.32
415.42	-130.73
415.612	-550.56
415.804	1001.8
415.997	555.34
416.188	-257.7
416.38	-276.13
416.572	143.7
416.764	651.6
416.956	-485.03
417.148	-470.69
417.34	307.54
417.531	35.16
417.723	-337.57
417.915	-495.27
418.107	135.51
418.298	487.76
418.49	-323.24
418.681	-67.24
418.873	809.29
419.064	442.7
419.256	-339.62
419.447	-403.11
419.639	592.2
419.83	803.15
420.021	-296.61
420.213	-390.82
420.404	313.68
420.595	418.13
420.786	-206.5
420.978	-175.78
421.169	684.36
421.36	264.53
421.551	-349.86
421.742	-491.17
421.933	960.84
422.124	622.92
422.315	-349.86
422.506	-308.9
422.697	545.1
422.888	268.63
423.079	-91.82
423.27	-370.34
423.461	354.64
423.652	307.54
423.842	-454.31
424.033	-276.13
424.224	600.4
424.415	1042.76
424.605	-151.21
424.796	-329.38
424.987	616.78
425.177	579.92
425.368	-640.67
425.558	-505.51
425.749	442.7
425.939	379.22
426.13	0.34
426.32	-143.02
426.511	260.43
426.701	248.15
426.892	-235.18
427.082	-317.09
427.272	264.53
427.463	516.43
427.653	-249.51
427.843	-91.82
428.034	1073.48
428.224	631.12
428.414	-505.51
428.604	-122.54
428.795	661.84
428.985	678.22
429.175	-7.85
429.365	-44.71
429.555	696.65
429.745	493.9
429.935	-208.55
430.126	-149.16
430.316	774.47
430.506	862.54
430.696	-237.22
430.886	-24.23
431.076	682.31
431.266	522.57
431.456	59.73
431.645	-202.41
431.835	444.75
432.025	651.6
432.215	-368.29
432.405	74.07
432.595	721.23
432.785	559.44
432.975	-245.41
433.164	-399.01
433.354	289.1
433.544	731.47
433.734	-226.98
433.923	90.45
434.113	600.4
434.303	534.86
434.493	26.96
434.682	-87.72
434.872	880.97
435.062	215.38
435.251	-44.71
435.441	-134.82
435.631	1108.29
435.82	610.64
436.01	-222.89
436.2	-34.47
436.389	577.87
436.579	1175.88
436.768	297.3
436.958	297.3
437.147	786.76
437.337	950.6
437.527	160.08
437.716	-57
437.906	1102.15
438.095	770.38
438.285	80.21
438.474	123.22
438.664	1175.88
438.853	923.98
439.043	313.68
439.232	-30.38
439.422	989.51
439.611	921.93
439.8	61.78
439.99	461.13
440.179	991.56
440.369	1341.76
440.558	4.44
440.748	207.19
440.937	809.29
441.126	457.04
441.316	432.46
441.505	104.79
441.695	1167.68
441.884	1640.76
442.073	387.41
442.263	57.68
442.452	1108.29
442.642	1341.76
442.831	242
443.02	596.3
443.21	1669.44
443.399	2021.69
443.588	362.83
443.778	528.72
443.967	1788.22
444.156	1261.89
444.346	282.96
444.535	364.88
444.725	1782.07
444.914	1198.4
445.103	465.23
445.293	592.2
445.482	1673.53
445.671	1290.56
445.861	573.77
446.05	698.7
446.239	1560.89
446.429	921.93
446.618	340.3
446.807	909.64
446.997	1544.51
447.186	1526.08
447.376	743.75
447.565	797
447.754	1823.03
447.944	1831.23
448.133	659.79
448.322	461.13
448.512	1198.4
448.701	1880.38
448.891	633.16
449.08	786.76
449.269	911.69
449.459	1190.21
449.648	604.49
449.838	622.92
450.027	1315.14
450.217	1169.73
450.406	473.42
450.595	948.55
450.785	1622.33
450.974	1710.4
451.164	555.34
451.353	649.55
451.543	1667.39
451.732	1861.94
451.922	571.72
452.111	559.44
452.301	1093.96
452.49	946.5
452.68	342.35
452.869	1069.38
453.059	1057.09
453.249	1511.74
453.438	256.34
453.628	731.47
453.817	1382.72
454.007	1280.32
454.197	264.53
454.386	573.77
454.576	1681.72
454.765	1583.42
454.955	631.12
455.145	368.98
455.334	1237.31
455.524	1028.42
455.714	629.07
455.904	420.17
456.093	2066.74
456.283	1390.91
456.473	354.64
456.663	436.56
456.852	1339.71
457.042	1268.03
457.232	414.03
457.422	1130.82
457.612	1380.67
457.802	1653.05
457.991	201.04
458.181	403.79
458.371	1372.48
458.561	1438.02
458.751	350.54
458.941	317.78
459.131	1055.05
459.321	1067.33
459.511	569.68
459.701	528.72
459.891	1167.68
460.081	866.63
460.271	422.22
460.461	305.49
460.651	1792.31
460.841	1739.07
461.032	416.08
461.222	330.06
461.412	1067.33
461.602	2097.46
461.792	125.27
461.983	174.42
462.173	1296.71
462.363	1841.47
462.554	321.87
462.744	364.88
462.934	1427.78
463.125	1198.4
463.315	248.15
463.505	315.73
463.696	1390.91
463.886	956.74
464.077	205.14
464.267	330.06
464.458	1558.85
464.648	897.35
464.839	481.61
465.03	325.97
465.22	708.94
465.411	1257.79
465.601	223.57
465.792	285.01
465.983	1003.85
466.174	1399.1
466.364	18.77
466.555	291.15
466.746	1323.33
466.937	979.27
467.128	307.54
467.319	297.3
467.51	1409.34
467.701	2099.51
467.891	305.49
468.082	160.08
468.274	1104.2
468.465	538.96
468.656	504.14
468.847	141.65
469.038	737.61
469.229	962.89
469.42	383.31
469.612	219.47
469.803	1321.28
469.994	1452.35
470.185	375.12
470.377	117.08
470.568	1124.68
470.76	1243.46
470.951	155.99
471.142	467.28
471.334	1415.49
471.526	1331.52
471.717	567.63
471.909	153.94
472.1	1009.99
472.292	1206.59
472.484	117.08
472.675	278.87
472.867	1120.58
473.059	1737.02
473.251	285.01
473.443	274.77
473.635	1214.79
473.826	1403.2
474.018	239.95
474.21	426.32
474.402	1337.66
474.595	1603.9
474.787	315.73
474.979	528.72
475.171	1001.8
475.363	686.41
475.555	110.93
475.748	215.38
475.94	1485.12
476.132	1014.09
476.325	270.67
476.517	723.27
476.71	2066.74
476.902	872.78
477.095	328.02
477.287	549.2
477.48	1526.08
477.673	1308.99
477.865	502.09
478.058	371.02
478.251	1435.97
478.444	1698.11
478.636	543.05
478.829	256.34
479.022	1345.86
479.215	1538.37
479.408	616.78
479.601	856.39
479.794	1020.23
479.988	1061.19
480.181	667.98
480.374	479.57
480.567	1378.62
480.76	1927.48
480.954	518.48
481.147	233.81
481.341	1143.11
481.534	1192.26
481.728	690.51
481.921	788.81
482.115	1517.89
482.308	1792.31
482.502	432.46
482.696	602.44
482.89	2259.25
483.084	1497.41
483.277	655.69
483.471	698.7
483.665	1751.35
483.859	2541.87
484.053	356.69
484.247	399.7
484.442	1470.78
484.636	1370.43
484.83	461.13
485.024	674.12
485.219	1423.68
485.413	1245.51
485.608	608.59
485.802	887.11
485.997	1870.14
486.191	1388.86
486.386	643.4
486.58	860.49
486.775	1667.39
486.97	1878.33
487.165	584.01
487.36	633.16
487.555	1595.71
487.75	1378.62
487.945	874.82
488.14	547.15
488.335	1227.07
488.53	1366.34
488.725	610.64
488.92	866.63
489.116	1997.11
489.311	1624.38
489.507	723.27
489.702	1206.59
489.898	2083.13
490.093	1409.34
490.289	1009.99
490.485	825.67
490.68	1173.83
490.876	2058.55
491.072	739.66
491.268	907.59
491.464	2021.69
491.66	1913.14
491.856	862.54
492.052	1249.6
492.248	2076.98
492.445	1755.45
492.641	741.71
492.837	842.06
493.034	1995.06
493.23	2195.76
493.427	1329.47
493.623	926.02
493.82	1919.29
494.017	2341.17
494.214	823.62
494.41	880.97
494.607	1993.01
494.804	1593.66
495.001	1087.81
495.198	1136.96
495.395	2085.17
495.593	2009.4
495.79	952.65
495.987	831.82
496.184	1331.52
496.382	2060.6
496.579	911.69
496.777	1073.48
496.974	2578.73
497.172	2015.54
497.37	960.84
497.568	745.8
497.766	2730.28
497.963	2013.49
498.161	1067.33
498.359	1288.51
498.558	2468.14
498.756	2294.07
498.954	1124.68
499.152	1374.53
499.351	2318.64
499.549	2197.81
499.747	1222.98
499.946	1182.02
500.145	1997.11
500.343	2103.61
500.542	1116.48
500.741	1304.9
500.94	2253.11
501.139	2541.87
501.338	1253.7
501.537	1640.76
501.736	2781.48
501.935	2263.35
502.134	1065.29
502.334	1272.13
502.533	2652.46
502.733	2484.53
502.932	1429.82
503.132	1347.9
503.331	2107.7
503.531	2599.21
503.731	1620.28
503.931	1493.31
504.131	1913.14
504.331	2715.95
504.531	1360.19
504.731	1472.83
504.931	2316.59
505.132	2359.6
505.332	1509.69
505.532	1462.59
505.733	2535.73
505.933	3053.86
506.134	1585.47
506.335	1372.48
506.536	2060.6
506.736	2720.04
506.937	1388.86
507.138	1313.09
507.34	3135.78
507.541	2478.38
507.742	1759.55
507.943	1298.75
508.145	2447.66
508.346	1997.11
508.548	1280.32
508.749	1409.34
508.951	2064.69
509.153	2302.26
509.354	1571.13
509.556	1698.11
509.758	2822.44
509.96	2013.49
510.163	1835.32
510.365	1800.51
510.567	2314.55
510.769	2154.8
510.972	1564.99
511.174	1943.86
511.377	2128.18
511.58	3557.66
511.782	1528.13
511.985	1642.81
512.188	3070.25
512.391	2785.58
512.594	1511.74
512.797	1724.73
513.001	2881.83
513.204	3103.01
513.407	1800.51
513.611	1782.07
513.814	2746.67
514.018	3121.45
514.222	1820.99
514.425	1782.07
514.629	2642.22
514.833	2689.32
515.037	1937.72
515.241	1612.09
515.445	2251.06
515.65	2351.41
515.854	1812.79
516.059	1790.27
516.263	2859.31
516.468	2750.76
516.672	1788.22
516.877	1757.5
517.082	2257.2
517.287	2797.87
517.492	2017.59
517.697	1769.79
517.902	2816.3
518.107	2443.57
518.313	1954.1
518.518	1929.53
518.724	3326.24
518.929	2734.38
519.135	2015.54
519.341	1612.09
519.547	2775.34
519.753	2871.59
519.959	1679.68
520.165	1837.37
520.371	3012.9
520.577	3475.74
520.784	1694.01
520.99	2115.89
521.197	3070.25
521.404	2769.2
521.61	1532.22
521.817	1718.59
522.024	3291.43
522.231	2652.46
522.438	1362.24
522.645	2273.59
522.853	2611.5
523.06	3010.86
523.268	1993.01
523.475	2001.21
523.683	2898.22
523.891	3029.29
524.098	1732.92
524.306	2033.97
524.514	2877.74
524.722	2756.91
524.931	1874.23
525.139	2050.36
525.347	2316.59
525.556	2615.6
525.764	2056.5
525.973	2267.44
526.182	3006.76
526.391	2638.13
526.6	1857.85
526.809	2044.21
527.018	2875.69
527.227	3117.35
527.436	2124.08
527.646	1990.97
527.855	2963.75
528.065	2820.39
528.275	1907
528.484	1808.7
528.694	3078.44
528.904	3004.71
529.114	1790.27
529.325	1960.25
529.535	2384.18
529.745	2955.56
529.956	1986.87
530.166	1894.71
530.377	2890.03
530.588	3287.33
530.799	2099.51
531.01	1993.01
531.221	3236.13
531.432	3139.88
531.643	2058.55
531.855	2378.03
532.066	3207.46
532.278	2844.97
532.489	2081.08
532.701	1950.01
532.913	3131.69
533.125	3021.1
533.337	1694.01
533.549	1898.81
533.762	3117.35
533.974	2509.1
534.186	1642.81
534.399	2150.71
534.612	3320.1
534.825	2816.3
535.037	2001.21
535.25	2263.35
535.464	2601.26
535.677	3295.52
535.89	1820.99
536.104	1960.25
536.317	2750.76
536.531	2754.86
536.744	2337.07
536.958	2066.74
537.172	3006.76
537.386	2812.2
537.6	2111.8
537.815	2038.07
538.029	3086.63
538.244	3152.17
538.458	1837.37
538.673	1945.91
538.888	2998.57
539.103	3442.98
539.318	2238.77
539.533	1909.05
539.748	2943.27
539.963	2629.93
540.179	1816.89
540.394	1739.07
540.61	2462
540.826	2677.04
541.042	1960.25
541.258	1851.71
541.474	3533.09
541.69	2928.94
541.906	2152.76
542.123	1868.09
542.339	3029.29
542.556	2601.26
542.773	1943.86
542.99	2093.37
543.207	2734.38
543.424	2752.81
543.641	2265.39
543.858	2441.52
544.076	2545.97
544.293	2748.72
544.511	1861.94
544.729	2099.51
544.947	2781.48
545.165	2992.42
545.383	1995.06
545.601	2033.97
545.819	2994.47
546.038	2705.71
546.256	2230.58
546.475	2074.93
546.694	3838.23
546.913	3313.95
547.132	2492.72
547.351	2005.3
547.57	2666.8
547.79	2754.86
548.009	2068.79
548.229	1956.15
548.449	2836.78
548.668	3229.99
548.888	2117.94
549.109	2050.36
549.329	3279.14
549.549	3383.59
549.77	2029.88
549.99	2330.93
550.211	3262.76
550.432	3674.4
550.653	1931.58
550.874	2234.68
551.095	3690.78
551.316	2785.58
551.538	2054.45
551.759	2365.75
551.981	3066.15
552.203	3229.99
552.424	2163
552.646	2478.38
552.869	2955.56
553.091	3115.3
553.313	2271.54
553.536	2294.07
553.758	3387.68
553.981	3000.62
554.204	2048.31
554.427	2306.35
554.65	3369.25
554.873	2566.45
555.097	1917.24
555.32	2208.05
555.544	3516.7
555.768	3324.19
555.992	2173.24
556.216	2150.71
556.44	2783.53
556.664	3289.38
556.888	2568.49
557.113	2083.13
557.337	3989.78
557.562	3766.56
557.787	2201.91
558.012	2279.73
558.237	3090.73
558.462	3111.21
558.688	2468.14
558.913	2402.61
559.139	2838.83
559.365	3442.98
559.591	2423.09
559.817	2378.03
560.043	3590.43
560.269	3780.89
560.496	2779.43
560.722	2464.05
560.949	3823.9
561.176	2971.94
561.403	2457.9
561.63	2685.23
561.857	2902.31
562.084	3117.35
562.312	2353.46
562.539	2642.22
562.767	3942.68
562.995	3303.71
563.223	2591.02
563.451	2824.49
563.679	3295.52
563.908	3354.91
564.136	2738.48
564.365	2914.6
564.594	2963.75
564.823	4643.09
565.052	2898.22
565.281	2550.06
565.51	3621.15
565.74	3389.73
565.969	2416.94
566.199	2890.03
566.429	3660.06
566.659	3823.9
566.889	2697.52
567.119	2828.59
567.35	4215.06
567.58	4139.29
567.811	3152.17
568.042	2920.74
568.273	3696.92
568.504	3893.53
568.735	2789.67
568.966	3045.67
569.198	3813.66
569.43	4131.09
569.661	2928.94
569.893	3483.94
570.125	4380.95
570.358	4321.56
570.59	3049.77
570.822	3143.97
571.055	4358.42
571.288	4311.32
571.521	3082.53
571.754	3193.12
571.987	4571.41
572.22	4174.1
572.454	3385.63
572.687	3328.29
572.921	3715.36
573.155	4057.37
573.389	3854.62
573.623	3615.01
573.858	4032.79
574.092	4538.64
574.327	3709.21
574.561	3866.91
574.796	4167.96
575.031	4720.91
575.266	3643.68
575.502	3844.38
575.737	4831.5
575.973	4616.46
576.209	3879.19
576.445	3838.23
576.681	4325.65
576.917	4833.55
577.153	3707.16
577.39	3957.02
577.626	5015.82
577.863	4942.09
578.1	3868.95
578.337	4170.01
578.574	4761.87
578.812	5736.7
579.049	4426
579.287	4368.66
579.525	5501.19
579.763	5413.12
580.001	4296.98
580.239	4647.18
580.478	6146.3
580.716	5613.82
580.955	4892.94
581.194	4903.18
581.433	6086.9
581.672	5783.81
581.911	4722.96
582.151	4763.92
582.39	5824.76
582.63	6248.69
582.87	5067.02
583.11	5204.23
583.35	5564.67
583.591	6220.02
583.831	5589.25
584.072	5794.04
584.313	6705.39
584.554	6422.77
584.795	5878.01
585.036	6113.53
585.277	7528.67
585.519	7168.23
585.761	5865.72
586.003	5941.5
586.245	7258.34
586.487	7522.53
586.729	6514.93
586.972	6412.53
587.215	8169.69
587.457	6992.11
587.7	6926.57
587.944	6867.18
588.187	7459.04
588.43	7569.63
588.674	7047.4
588.918	6887.66
589.162	8192.22
589.406	7897.31
589.65	7076.07
589.894	8104.15
590.139	8491.22
590.384	8724.69
590.629	7612.64
590.874	7958.75
591.119	8210.65
591.364	9294.02
591.61	7882.97
591.855	7907.55
592.101	9775.3
592.347	9294.02
592.593	8380.63
592.84	8784.08
593.086	10277.05
593.333	9560.26
593.58	8741.07
593.827	8603.86
594.074	9953.47
594.321	9943.23
594.568	8995.02
594.816	9081.03
595.064	10275
595.312	10326.2
595.56	9623.75
595.808	10205.37
596.057	10946.73
596.305	10901.68
596.554	9746.62
596.803	10295.48
597.052	11638.95
597.301	11821.22
597.551	10447.03
597.8	11069.61
598.05	11722.91
598.3	11669.67
598.55	10741.94
598.8	11036.84
599.051	11514.02
599.301	11935.9
599.552	11188.39
599.803	11737.25
600.054	12726.42
600.305	12435.61
600.556	11714.72
600.808	11876.51
601.06	12581.01
601.312	13095.05
601.564	12318.87
601.816	12216.47
602.068	13807.75
602.321	13908.1
602.574	12589.21
602.827	12447.9
603.08	13766.79
603.333	14059.65
603.587	12789.91
603.84	13285.51
604.094	14465.14
604.348	14092.41
604.602	13197.45
604.856	13582.47
605.111	14817.4
605.365	15038.58
605.62	14045.31
605.875	14057.6
606.13	14821.49
606.386	15263.85
606.641	14225.53
606.897	14164.09
607.153	15386.73
607.409	15890.53
607.665	14628.98
607.921	14674.04
608.178	15362.15
608.435	16386.14
608.692	15024.24
608.949	15337.58
609.206	16635.99
609.463	16232.54
609.721	15636.58
609.979	15525.99
610.237	16427.1
610.495	17221.71
610.753	16091.23
611.012	16152.67
611.27	17367.12
611.529	17117.26
611.788	16210.01
612.047	15857.76
612.307	16873.56
612.566	17533
612.826	16361.56
613.086	16496.73
613.346	17033.3
613.606	17805.38
613.867	16869.46
614.127	16971.86
614.388	17530.95
614.649	18251.84
614.91	17252.43
615.172	17215.57
615.433	17745.99
615.695	18235.46
615.957	17168.46
616.219	17623.11
616.481	18698.3
616.743	18344
617.006	17094.74
617.269	17606.73
617.532	18624.57
617.795	18788.41
618.058	17789
618.322	18124.86
618.586	18774.07
618.849	18387
619.114	18010.18
619.378	17582.15
619.642	18987.06
619.907	19087.41
620.172	18008.13
620.437	18382.91
620.702	19126.32
620.967	18899
621.233	17827.91
621.499	17887.3
621.765	18849.85
622.031	19122.23
622.297	17608.78
622.564	18114.62
622.83	18931.76
623.097	19771.43
623.364	18303.04
623.631	18313.28
623.899	19396.65
624.166	19472.43
624.434	18063.43
624.702	18055.23
624.97	19501.1
625.239	19040.31
625.507	18415.68
625.776	18147.39
626.045	18815.03
626.314	19120.18
626.584	18221.12
626.853	18270.27
627.123	19238.96
627.393	18591.8
627.663	18088
627.933	17985.6
628.204	19310.64
628.474	18939.96
628.745	18057.28
629.016	18337.85
629.287	18968.63
629.559	18622.52
629.83	18006.08
630.102	17750.09
630.374	18505.79
630.646	19257.39
630.919	17811.53
631.191	18090.05
631.464	18882.61
631.737	18413.63
632.01	17707.08
632.284	17682.5
632.557	19017.78
632.831	18618.43
633.105	17506.38
633.379	17487.95
633.654	18075.71
633.928	18567.23
634.203	17436.75
634.478	17381.45
634.753	18487.36
635.028	18659.38
635.304	17524.81
635.58	17594.44
635.856	18243.65
636.132	17911.88
636.408	17086.54
636.685	17121.36
636.961	17799.24
637.238	18094.15
637.515	17051.73
637.793	16627.8
638.07	18036.8
638.348	17623.11
638.626	17203.28
638.904	17111.12
639.182	17190.99
639.461	16914.52
639.74	16558.17
640.019	16926.8
640.298	16777.3
640.577	17363.02
640.857	16336.99
641.136	16369.76
641.416	16934.99
641.696	17760.33
641.977	16207.97
642.257	16461.91
642.538	17090.64
642.819	17608.78
643.1	16099.42
643.382	15689.83
643.663	17021.01
643.945	16828.5
644.227	15792.23
644.509	15560.81
644.792	17018.96
645.074	16334.94
645.357	15390.83
645.64	15566.95
645.923	16386.14
646.207	16652.38
646.49	15257.71
646.774	15421.55
647.058	16021.6
647.342	16574.55
647.627	14710.9
647.911	14970.99
648.196	16293.98
648.481	15919.2
648.767	14825.59
649.052	14948.47
649.338	15351.92
649.624	15341.68
649.91	14241.92
650.196	14635.13
650.483	15669.35
650.77	15712.36
651.057	14426.23
651.344	14415.99
651.631	15255.66
651.919	14856.31
652.207	13928.58
652.495	14125.18
652.783	15009.9
653.071	15159.41
653.36	13707.4
653.649	13746.31
653.938	14774.39
654.227	15134.83
654.517	14035.07
654.806	13330.57
655.096	14147.71
655.387	14415.99
655.677	13355.15
655.968	13297.8
656.258	14012.54
656.549	14411.9
656.841	13490.31
657.132	13207.69
657.424	13961.34
657.716	13795.46
658.008	12925.07
658.3	13039.76
658.592	13549.7
658.885	13877.38
659.178	12630.16
659.471	12347.54
659.765	13099.15
660.058	13093.01
660.352	12220.57
660.646	12290.2
660.94	13578.37
661.235	13297.8
661.53	12406.94
661.824	11737.25
662.12	12855.44
662.415	12576.92
662.711	11960.48
663.006	11989.15
663.302	12621.97
663.599	12378.26
663.895	11493.54
664.192	11782.31
664.489	12599.45
664.786	12806.29
665.083	11251.88
665.381	11118.76
665.678	12107.93
665.976	12382.36
666.275	10844.34
666.573	11290.79
666.872	11647.14
667.171	12003.49
667.47	10801.33
667.769	10543.28
668.069	11710.63
668.368	12040.35
668.668	10420.41
668.969	10500.28
669.269	11374.76
669.57	11243.69
669.871	10381.49
670.172	10358.97
670.473	11620.52
670.775	11548.84
671.077	10080.44
671.379	10285.24
671.681	11169.96
671.983	10905.77
672.286	9896.13
672.589	10064.06
672.892	11014.32
673.196	10682.55
673.499	9658.56
673.803	9613.51
674.107	10873.01
674.411	10453.17
674.716	9728.19
675.021	9918.65
675.326	10348.73
675.631	10705.07
675.936	9261.26
676.242	9320.65
676.548	9572.55
676.854	10754.23
677.16	8894.67
677.467	8861.9
677.774	10082.49
678.081	9648.32
678.388	9128.14
678.696	9070.79
679.004	10025.15
679.312	10287.29
679.62	8884.43
679.928	8810.7
680.237	9851.07
680.546	9023.69
680.855	8562.9
681.164	8444.12
681.474	9476.29
681.784	9447.62
682.094	8497.36
682.404	7997.66
682.715	9627.84
683.026	8646.87
683.337	7905.5
683.648	8358.1
683.959	9410.76
684.271	9003.21
684.583	8118.49
684.895	7704.8
685.208	8913.1
685.52	8992.97
685.833	8167.64
686.146	7555.3
686.46	8904.91
686.773	8558.8
687.087	7555.3
687.401	7416.04
687.716	8526.04
688.03	8255.7
688.345	7170.28
688.66	7473.38
688.975	8513.75
689.291	8358.1
689.607	7661.79
689.923	7149.8
690.239	7756
690.555	8095.96
690.872	6981.87
691.189	6635.76
691.506	8005.85
691.824	8237.27
692.142	6869.23
692.459	6764.78
692.778	7588.07
693.096	8069.34
693.415	7100.65
693.734	6797.55
694.053	7639.26
694.372	6947.05
694.692	6361.33
695.012	6572.27
695.332	6988.01
695.652	7342.31
695.973	6484.21
696.294	6230.26
696.615	6973.67
696.936	7397.6
697.258	5867.77
697.579	5914.88
697.902	6666.48
698.224	6815.98
698.546	5832.96
698.869	5697.79
699.192	6570.23
699.516	7039.21
699.839	5701.89
700.163	5990.65
700.487	6433.01
700.811	7278.82
701.136	5507.33
701.461	5699.84
701.786	6590.7
702.111	7092.46
702.436	5361.92
702.762	5529.86
703.088	6762.73
703.415	7051.5
703.741	5593.34
704.068	5277.96
704.395	6283.51
704.722	6392.05
705.05	5116.17
705.377	5155.08
705.705	6269.17
706.034	6209.78
706.362	4931.85
706.691	4835.6
707.02	6023.42
707.349	6232.31
707.679	4974.86
708.009	4864.27
708.339	5763.33
708.669	5787.9
709	4831.5
709.33	4458.77
709.661	5687.55
709.993	5550.34
710.324	4739.34
710.656	4620.56
710.988	5671.17
711.321	5845.24
711.653	4225.3
711.986	4587.79
712.319	4921.61
712.652	5675.26
712.986	4630.8
713.32	4329.75
713.654	5804.28
713.988	5703.93
714.323	4452.63
714.658	4258.07
714.993	5245.19
715.328	5044.49
715.664	4217.11
716	4464.91
716.336	5656.83
716.673	4833.55
717.009	4327.7
717.346	4286.74
717.683	5634.3
718.021	4927.75
718.359	3856.67
718.697	4036.89
719.035	4671.76
719.373	4575.5
719.712	4233.49
720.051	3619.1
720.39	5169.41
720.73	4684.05
721.07	3621.15
721.41	3721.5
721.75	4944.14
722.091	4870.41
722.432	3606.81
722.773	3914.01
723.114	4538.64
723.456	4673.81
723.798	3373.35
724.14	3598.62
724.482	4434.19
724.825	4589.84
725.168	3711.26
725.511	3557.66
725.855	4417.81
726.198	4215.06
726.542	3348.77
726.887	3852.57
727.231	4673.81
727.576	3635.49
727.921	3309.86
728.266	3000.62
728.612	4143.38
728.958	4376.85
729.304	3012.9
729.651	3533.09
729.997	3877.15
730.344	4090.13
730.691	3121.45
731.039	3158.31
731.387	4045.08
731.735	3758.36
732.083	3068.2
732.431	3021.1
732.78	3623.2
733.129	3123.49
733.479	2795.82
733.828	3041.57
734.178	3678.49
734.528	3383.59
734.879	3086.63
735.23	2832.68
735.581	3877.15
735.932	3778.84
736.283	2926.89
736.635	2677.04
736.987	4100.37
737.34	3983.64
737.692	2576.69
738.045	2634.03
738.398	3778.84
738.752	3830.04
739.105	2349.36
739.459	2957.61
739.814	3684.64
740.168	3662.11
740.523	2300.21
740.878	2591.02
741.233	3385.63
741.589	3643.68
741.945	2502.96
742.301	2492.72
742.657	3696.92
743.014	3008.81
743.371	2224.44
743.728	2922.79
744.086	3328.29
744.444	3158.31
744.802	2085.17
745.16	2206
745.519	3533.09
745.878	2873.64
746.237	2087.22
746.597	2410.8
746.956	3506.46
747.316	3098.92
747.677	1935.67
748.037	2193.72
748.398	2890.03
748.759	3213.6
749.121	2240.82
749.482	2287.92
749.844	2664.75
750.207	2375.99
750.569	1681.72
750.932	2099.51
751.295	3565.85
751.659	2928.94
752.022	1814.84
752.386	2443.57
752.751	2806.06
753.115	2400.56
753.48	1958.2
753.845	1972.54
754.21	2928.94
754.576	2554.16
754.942	1663.29
755.308	2111.8
755.675	2527.53
756.041	3238.18
756.409	1567.04
756.776	1808.7
757.144	3103.01
757.511	2742.57
757.88	1773.88
758.248	1435.97
758.617	2007.35
758.986	2564.4
759.355	1829.18
759.725	1812.79
760.095	2126.13
760.465	2855.21
760.836	1378.62
761.206	1677.63
761.577	2867.5
761.949	2134.32
762.32	1683.77
762.692	1362.24
763.065	2199.86
763.437	1972.54
763.81	1429.82
764.183	1521.98
764.556	2754.86
764.93	2195.76
765.304	1651
765.678	1644.86
766.053	2148.66
766.428	2218.29
766.803	1304.9
767.178	1329.47
767.554	1648.96
767.93	2029.88
768.306	1134.92
768.683	1192.26
769.06	2468.14
769.437	2214.2
769.814	1026.37
770.192	1145.16
770.57	1988.92
770.948	2804.01
771.327	1290.56
771.706	1085.76
772.085	2113.85
772.464	2570.54
772.844	1296.71
773.224	936.26
773.605	1651
773.985	1724.73
774.366	1212.74
774.748	1468.73
775.129	2292.02
775.511	2181.43
775.893	1055.05
776.276	1243.46
776.658	2255.15
777.041	1952.06
777.425	940.36
777.808	1050.95
778.192	1659.2
778.576	2330.93
778.961	665.93
779.346	973.13
779.731	1923.38
780.116	1333.57
780.502	952.65
780.888	1073.48
781.274	1718.59
781.661	1624.38
782.048	864.58
782.435	921.93
782.823	1771.83
783.21	1874.23
783.598	840.01
783.987	997.7
784.376	1988.92
784.765	1456.45
785.154	862.54
785.544	872.78
785.933	1984.82
786.324	1509.69
786.714	1102.15
787.105	551.24
787.496	1667.39
787.888	1413.44
788.279	581.96
788.671	674.12
789.064	1605.95
789.456	1755.45
789.849	612.68
790.242	696.65
790.636	1274.18
791.03	1732.92
791.424	487.76
791.818	2115.89
792.213	1788.22
792.608	1601.85
793.004	815.43
793.399	432.46
793.795	1569.09
794.192	1247.55
794.588	436.56
794.985	287.06
795.382	1583.42
795.78	1352
796.178	602.44
796.576	592.2
796.974	2009.4
797.373	1339.71
797.772	440.65
798.172	389.46
798.571	1329.47
798.971	1710.4
799.372	651.6
799.772	561.48
800.173	1788.22
800.574	1438.02
800.976	567.63
801.378	282.96
801.78	946.5
802.182	844.1
802.585	616.78
802.988	414.03
803.392	923.98
803.795	1014.09
804.199	315.73
804.604	518.48
805.008	1497.41
805.413	1845.56
805.819	504.14
806.224	207.19
806.63	1190.21
807.036	1438.02
807.443	354.64
807.85	444.75
808.257	1456.45
808.664	1225.03
809.072	702.79
809.48	518.48
809.889	1554.75
810.297	1413.44
810.706	663.88
811.116	207.19
811.526	1053
811.936	1139.01
812.346	174.42
812.757	242
813.167	1044.81
813.579	1009.99
813.99	321.87
814.402	223.57
814.814	1747.26
815.227	1009.99
815.64	55.64
816.053	309.58
816.467	1419.58
816.88	1192.26
817.294	559.44
817.709	518.48
818.124	895.3
818.539	1378.62
818.954	340.3
819.37	381.26
819.786	719.18
820.202	1165.64
820.619	-198.31
821.036	16.73
821.453	1470.78
821.871	1157.44
822.289	149.84
822.707	8.53
823.126	1231.17
823.545	825.67
823.964	39.25
824.384	53.59
824.804	731.47
825.224	1249.6
825.645	373.07
826.065	6.49
826.487	1313.09
826.908	1259.84
827.33	182.61
827.752	559.44
828.175	989.51
828.598	1329.47
829.021	430.41
829.444	821.58
829.868	1085.76
830.292	747.85
830.717	-120.49
831.142	45.4
831.567	665.93
831.992	856.39
832.418	561.48
832.844	-22.19
833.27	993.61
833.697	866.63
834.124	-161.45
834.552	-95.91
834.979	1388.86
835.408	891.21
835.836	-169.64
836.265	178.51
836.694	698.7
837.123	1067.33
837.553	-169.64
837.983	-251.56
838.413	1055.05
838.844	1096
839.275	-79.53
839.706	194.9
840.138	1460.54
840.57	729.42
841.003	-44.71
841.435	227.67
841.868	649.55
842.302	692.55
842.735	100.69
843.169	-79.53
843.604	897.35
844.039	979.27
844.474	-126.63
844.909	-177.83
845.345	1063.24
845.781	946.5
846.217	-167.59
846.654	-198.31
847.091	1005.89
847.528	575.82
847.966	-161.45
848.404	-71.34
848.842	1550.65
849.281	92.5
849.72	-20.14
850.16	-169.64
850.599	604.49
851.039	510.29
851.48	201.04
851.921	-61.1
852.362	870.73
852.803	1171.78
853.245	-429.73
853.687	-52.91
854.129	1007.94
854.572	475.47
855.015	-376.48
855.459	-167.59
855.903	373.07
856.347	878.92
856.791	-87.72
857.236	-183.98
857.681	1317.19
858.127	1601.85
858.572	110.93
859.019	-194.22
859.465	1042.76
859.912	760.14
860.359	-247.46
860.807	-347.81
861.255	518.48
861.703	1104.2
862.151	-159.4
862.6	207.19
863.05	833.86
863.499	459.09
863.949	-186.02
864.4	-382.63
864.85	1188.16
865.301	969.03
865.752	-216.74
866.204	-143.02
866.656	436.56
867.109	1126.72
867.561	-300.71
868.014	8.53
868.468	831.82
868.921	876.87
869.376	-54.95
869.83	-204.46
870.285	641.36
870.74	395.6
871.195	-140.97
871.651	-112.3
872.107	1233.22
872.564	547.15
873.021	-431.78
873.478	-448.16
873.936	831.82
874.394	928.07
874.852	-208.55
875.31	10.58
875.769	801.1
876.229	1265.99
876.688	-38.57
877.148	-177.83
877.609	485.71
878.069	371.02
878.531	55.64
878.992	-413.35
879.454	543.05
879.916	665.93
880.378	-249.51
880.841	-259.75
881.304	174.42
881.768	301.39
882.232	-485.03
882.696	-136.87
883.161	244.05
883.626	637.26
884.091	-247.46
884.557	-306.85
885.023	242
885.489	805.19
885.956	-548.51
886.423	-349.86
886.89	112.98
887.358	735.56
887.826	-237.22
888.295	-183.98
888.763	342.35
889.233	1222.98
889.702	-347.81
890.172	-313
890.642	383.31
891.113	366.93
891.584	76.12
892.055	-370.34
892.527	860.49
892.999	1001.8
893.472	-282.28
893.944	-153.26
894.417	665.93
894.891	287.06
895.365	-214.7
895.839	-159.4
896.314	721.23
896.789	-112.3
897.264	-396.96
897.74	-525.99
898.216	878.92
898.692	782.67
899.169	-394.92
899.646	-343.72
900.123	731.47
900.601	1050.95
901.079	-431.78
901.558	-153.26
902.037	899.4
902.516	547.15
902.996	-548.51
903.476	-497.32
903.956	291.15
904.437	723.27
904.918	-448.16
905.399	-419.49
905.881	723.27
906.363	708.94
906.846	-476.84
907.329	-257.7
907.812	53.59
908.296	600.4
908.78	-566.95
909.264	-454.31
909.749	248.15
910.234	794.95
910.719	-413.35
911.205	-79.53
911.691	92.5
912.178	610.64
912.665	-38.57
913.152	-413.35
913.64	305.49
914.128	833.86
914.616	-454.31
915.105	-396.96
915.594	543.05
916.084	1112.39
916.574	-302.76
917.064	-642.72
917.555	47.44
918.046	686.41
918.537	98.64
919.029	-761.5
919.521	149.84
920.013	932.17
920.506	-292.52
920.999	-554.66
921.493	663.88
921.987	323.92
922.481	-239.27
922.976	-458.4
923.471	252.24
923.967	627.02
924.462	-251.56
924.959	-325.29
925.455	618.83
925.952	502.09
926.449	-489.12
926.947	-435.88
927.445	545.1
927.944	313.68
928.442	-767.65
928.942	-612
929.441	805.19
929.941	246.1
930.442	-435.88
930.942	-493.22
931.443	715.08
931.945	67.92
932.447	-573.09
932.949	-444.07
933.451	287.06
933.954	375.12
934.458	-214.7
934.961	-478.88
935.465	215.38
935.97	160.08
936.475	-288.42
936.98	-532.13
937.486	-110.25
937.992	203.09
938.498	-435.88
939.005	-325.29
939.512	313.68
940.019	479.57
940.527	-323.24
941.035	-192.17
941.544	657.74
942.053	299.34
942.562	-149.16
943.072	-71.34
943.582	719.18
944.093	158.03
944.604	-652.96
945.115	-448.16
945.627	858.44
946.139	964.93
946.651	-532.13
947.164	-319.14
947.677	584.01
948.191	436.56
948.705	-568.99
949.219	-616.1
949.734	250.19
950.249	616.78
950.765	-388.77
951.281	-405.16
951.797	1495.36
952.314	813.38
952.831	-466.6
953.348	-616.1
953.866	645.45
954.384	282.96
954.903	-489.12
955.422	-648.86
955.941	248.15
956.461	350.54
956.981	-523.94
957.502	-284.33
958.023	581.96
958.544	553.29
959.066	-370.34
959.588	-593.57
960.11	100.69
960.633	903.5
961.156	-427.68
961.68	-439.97
962.204	821.58
962.729	35.16
963.253	-530.08
963.779	196.95
964.304	608.59
964.83	915.78
965.357	-585.38
965.883	-454.31
966.411	428.37
966.938	608.59
967.466	-364.2
967.994	-700.06
968.523	194.9
969.052	821.58
969.582	-407.2
970.112	-593.57
970.642	129.36
971.173	829.77
971.704	-509.6
972.235	-419.49
972.767	508.24
973.3	338.26
973.832	-235.18
974.365	-710.3
974.899	502.09
975.433	416.08
975.967	-599.71
976.502	-276.13
977.037	414.03
977.572	969.03
978.108	-612
978.644	-700.06
979.181	1116.48
979.718	704.84
980.255	-853.66
980.793	-452.26
981.331	-321.19
981.87	837.96
982.409	-460.45
982.948	-319.14
983.488	379.22
984.028	907.59
984.569	-362.15
985.11	-489.12
985.651	743.75
986.193	459.09
986.735	-681.63
987.278	-534.18
987.821	-40.62
988.364	313.68
988.908	-366.25
989.452	-632.48
989.997	-382.63
990.542	512.33
991.088	-618.15
991.633	-153.26
992.18	260.43
992.726	-143.02
993.273	-396.96
993.821	-372.39
994.369	280.91
994.917	768.33
995.465	-714.4
996.014	-689.82
996.564	543.05
997.114	125.27
997.664	-251.56
998.215	-593.57
998.766	440.65
999.317	-108.2
999.869	-358.05
1000.421	-562.85
1000.974	655.69
1001.527	561.48
1002.081	-618.15
1002.635	-263.85
1003.189	373.07
1003.744	719.18
1004.299	-755.36
1004.854	-534.18
1005.41	784.71
1005.967	125.27
1006.523	-464.55
1007.081	-417.44
1007.638	514.38
1008.196	469.33
1008.755	-620.19
1009.313	-325.29
1009.873	547.15
1010.432	37.2
1010.992	-345.77
1011.553	-380.58
1012.114	297.3
1012.675	-16.04
1013.237	-243.37
1013.799	-214.7
1014.361	584.01
1014.924	18.77
1015.487	-661.15
1016.051	-497.32
1016.615	692.55
1017.18	510.29
1017.745	-575.14
1018.31	-104.11
1018.876	780.62
1019.442	328.02
1020.009	-374.44
1020.576	-743.07
1021.143	317.78
1021.711	682.31
1022.28	-556.71
1022.848	-566.95
1023.417	758.09
1023.987	252.24
1024.557	-554.66
1025.127	-552.61
1025.698	-67.24
1026.269	20.82
1026.841	-743.07
1027.413	-407.2
1027.985	280.91
1028.558	291.15
1029.131	-640.67
1029.705	-437.92
1030.279	368.98
1030.854	393.55
1031.429	-644.77
1032.004	-222.89
1032.58	620.88
1033.156	-40.62
1033.733	-687.78
1034.31	-579.23
1034.887	567.63
1035.465	702.79
1036.043	-800.41
1036.622	-519.84
1037.201	266.58
1037.781	698.7
1038.361	-667.3
1038.941	-808.61
1039.522	454.99
1040.103	846.15
1040.685	-583.33
1041.267	-319.14
1041.85	1141.06
1042.433	549.2
1043.016	-691.87
1043.6	-558.75
1044.184	-284.33
1044.769	584.01
1045.354	-499.36
1045.939	-632.48
1046.525	235.86
1047.111	432.46
1047.698	-423.59
1048.285	-773.79
1048.873	502.09
1049.461	-79.53
1050.049	-628.39
1050.638	-511.65
1051.228	-48.81
1051.817	725.32
1052.407	-640.67
1052.998	-294.57
1053.589	461.13
1054.18	690.51
1054.772	-919.2
1055.365	-652.96
1055.957	473.42
1056.55	248.15
1057.144	-470.69
1057.738	-595.62
1058.333	100.69
1058.927	92.5
1059.523	-525.99
1060.118	-669.34
1060.715	-18.09
1061.311	524.62
1061.908	-634.53
1062.506	-317.09
1063.103	364.88
1063.702	-13.99
1064.3	-827.04
1064.9	-702.11
1065.499	854.34
1066.099	102.74
1066.7	-546.47
1067.301	-759.46
1067.902	805.19
1068.504	715.08
1069.106	-437.92
1069.709	-370.34
1070.312	719.18
1070.915	368.98
1071.519	-636.58
1072.123	-419.49
1072.728	633.16
1073.333	313.68
1073.939	-267.94
1074.545	-485.03
1075.152	549.2
1075.759	76.12
1076.366	-624.29
1076.974	-319.14
1077.582	213.33
1078.191	751.95
1078.8	-429.73
1079.41	-882.33
1080.02	356.69
1080.63	377.17
1081.241	-161.45
1081.852	-798.37
1082.464	371.02
1083.076	368.98
1083.689	-612
1084.302	-421.54
1084.915	743.75
1085.529	440.65
1086.144	-587.43
1086.759	-466.6
1087.374	92.5
1087.99	317.78
1088.606	-636.58
1089.222	-478.88
1089.839	563.53
1090.457	332.11
1091.075	-448.16
1091.693	-734.88
1092.312	502.09
1092.931	905.54
1093.551	-593.57
1094.171	-155.3
1094.792	469.33
1095.413	100.69
1096.034	-530.08
1096.656	-513.7
1097.278	534.86
1097.901	420.17
1098.524	-636.58
1099.148	-308.9
1099.772	792.91
1100.397	303.44
1101.022	-693.92
1101.647	-585.38
1102.273	436.56
1102.899	612.68
1103.526	-884.38
1104.153	-382.63
1104.781	643.4
1105.409	762.19
1106.038	-683.68
1106.667	-784.03
1107.296	207.19
1107.926	174.42
1108.556	-179.88
1109.187	-562.85
1109.818	360.78
1110.45	715.08
1111.082	-466.6
1111.715	-558.75
1112.348	422.22
1112.981	223.57
1113.615	-247.46
1114.25	-521.89
1114.885	160.08
1115.52	147.8
1116.156	-736.93
1116.792	-528.03
1117.428	543.05
1118.066	12.63
1118.703	-310.95
1119.341	-591.52
1119.98	657.74
1120.618	708.94
1121.258	-638.62
1121.898	-708.26
1122.538	305.49
1123.179	-194.22
1123.82	-470.69
1124.461	-444.07
1125.103	606.54
1125.746	201.04
1126.389	-425.64
1127.032	-712.35
1127.676	485.71
1128.32	741.71
1128.965	-466.6
1129.61	-396.96
1130.256	217.43
1130.902	586.06
1131.549	-571.04
1132.196	-644.77
1132.844	661.84
1133.491	584.01
1134.14	-411.3
1134.789	-439.97
1135.438	1020.23
1136.088	178.51
1136.738	-730.78
1137.389	-677.54
1138.04	567.63
1138.692	891.21
1139.344	-640.67
1139.996	-640.67
1140.649	477.52
1141.303	633.16
1141.957	-425.64
1142.611	-575.14
1143.266	346.45
1143.921	344.4
1144.577	-562.85
1145.233	-583.33
1145.89	18.77
1146.547	504.14
1147.205	-726.69
1147.863	-464.55
1148.521	373.07
1149.18	592.2
1149.84	-698.02
1150.5	-620.19
1151.16	332.11
1151.821	536.91
1152.482	-497.32
1153.144	-38.57
1153.806	317.78
1154.469	368.98
1155.132	-743.07
1155.796	-448.16
1156.46	518.48
1157.124	923.98
1157.789	-652.96
1158.455	-677.54
1159.121	330.06
1159.787	22.87
1160.454	-515.75
1161.121	-403.11
1161.789	276.82
1162.457	551.24
1163.126	-562.85
1163.795	-593.57
1164.465	375.12
1165.135	39.25
1165.806	-476.84
1166.477	-415.4
1167.148	-308.9
1167.82	528.72
1168.493	-751.26
1169.166	-370.34
1169.839	-75.43
1170.513	346.45
1171.187	-659.1
1171.862	-564.9
1172.537	352.59
1173.213	489.81
1173.889	-636.58
1174.566	-638.62
1175.243	745.8
1175.921	248.15
1176.599	-550.56
1177.278	-308.9
1177.957	-120.49
1178.636	725.32
1179.316	-411.3
1179.997	-786.08
1180.678	573.77
1181.359	833.86
1182.041	-693.92
1182.723	-753.31
1183.406	674.12
1184.089	108.88
1184.773	-743.07
1185.457	-781.98
1186.142	149.84
1186.827	1247.55
1187.513	-698.02
1188.199	-147.11
1188.886	121.17
1189.573	244.05
1190.26	-489.12
1190.948	-515.75
1191.637	-5.8
1192.326	289.1
1193.015	-677.54
1193.705	-714.4
1194.396	149.84
1195.087	239.95
1195.778	-439.97
1196.47	-708.26
1197.162	282.96
1197.855	452.94
1198.548	-607.91
1199.242	-804.51
1199.936	430.41
1200.631	602.44
1201.326	-800.41
1202.022	-732.83
1202.718	715.08
1203.415	311.63
1204.112	-798.37
1204.81	-460.45
1205.508	246.1
1206.206	983.37
1206.905	-630.43
1207.605	-652.96
1208.305	233.81
1209.005	383.31
1209.706	-732.83
1210.408	-685.73
1211.11	268.63
1211.812	471.37
1212.515	-552.61
1213.218	-583.33
1213.922	338.26
1214.627	262.48
1215.331	-595.62
1216.037	-560.8
1216.743	-63.15
1217.449	420.17
1218.156	-452.26
1218.863	-444.07
1219.571	285.01
1220.279	786.76
1220.988	-853.66
1221.697	-517.79
1222.406	479.57
1223.117	104.79
1223.827	-423.59
1224.538	-603.81
1225.25	201.04
1225.962	346.45
1226.675	-872.09
1227.388	-460.45
1228.101	289.1
1228.815	-28.33
1229.53	-532.13
1230.245	-431.78
1230.961	444.75
1231.677	248.15
1232.393	-472.74
1233.11	-491.17
1233.828	999.75
1234.546	430.41
1235.264	-583.33
1235.983	-192.17
1236.702	1077.57
1237.422	227.67
1238.143	-362.15
1238.864	-677.54
1239.585	698.7
1240.307	-335.53
1241.029	-763.55
1241.752	-245.41
1242.476	510.29
1243.2	825.67
1243.924	-532.13
1244.649	-495.27
1245.374	592.2
1246.1	764.23
1246.826	-843.42
1247.553	-562.85
1248.28	371.02
1249.008	403.79
1249.737	-657.06
1250.465	-341.67
1251.195	573.77
1251.925	696.65
1252.655	-677.54
1253.386	-300.71
1254.117	207.19
1254.849	125.27
1255.581	-511.65
1256.314	-464.55
1257.047	659.79
1257.781	518.48
1258.515	-612
1259.25	-169.64
1259.985	350.54
1260.721	465.23
1261.457	-487.08
1262.194	-874.14
1262.931	182.61
1263.669	823.62
1264.407	-386.72
1265.146	-687.78
1265.885	450.89
1266.625	305.49
1267.365	-587.43
1268.106	-564.9
1268.847	176.47
1269.589	65.88
1270.331	-370.34
1271.074	-491.17
1271.817	403.79
1272.561	358.74
1273.305	-364.2
1274.05	-380.58
1274.795	387.41
1275.541	262.48
1276.287	-800.41
1277.034	-681.63
1277.781	117.08
1278.529	659.79
1279.277	-818.85
1280.026	-824.99
1280.775	780.62
1281.525	-452.26
1282.275	-870.05
1283.026	-186.02
1283.777	389.46
1284.529	426.32
1285.281	-628.39
1286.034	-683.68
1286.788	745.8
1287.541	354.64
1288.296	-786.08
1289.051	-431.78
1289.806	436.56
1290.562	530.77
1291.318	-689.82
1292.075	-540.32
1292.832	731.47
1293.59	893.26
1294.349	-693.92
1295.108	-603.81
1295.867	1104.2
1296.627	522.57
1297.387	-759.46
1298.148	-431.78
1298.91	235.86
1299.672	35.16
1300.434	-587.43
1301.197	-771.74
1301.961	1263.94
1302.725	264.53
1303.489	-382.63
1304.254	-476.84
1305.02	430.41
1305.786	690.51
1306.552	-816.8
1307.319	-808.61
1308.087	821.58
1308.855	854.34
1309.624	-562.85
1310.393	-476.84
1311.162	-151.21
1311.933	596.3
1312.703	-564.9
1313.474	-435.88
1314.246	285.01
1315.018	575.82
1315.791	-222.89
1316.564	-775.84
1317.338	637.26
1318.112	166.23
1318.887	-816.8
1319.662	-491.17
1320.438	395.6
1321.214	194.9
1321.991	-390.82
1322.769	-745.12
1323.546	411.98
1324.325	108.88
1325.104	-720.54
1325.883	-444.07
1326.663	-120.49
1327.444	475.47
1328.224	-599.71
1329.006	-429.73
1329.788	387.41
1330.571	346.45
1331.354	-288.42
1332.137	-706.21
1332.921	694.6
1333.706	4.44
1334.491	-407.2
1335.277	-452.26
1336.063	92.5
1336.849	162.13
1337.637	-820.89
1338.424	-624.29
1339.213	948.55
1340.001	870.73
1340.791	-804.51
1341.581	-386.72
1342.371	598.35
1343.162	231.76
1343.953	-585.38
1344.745	-431.78
1345.537	440.65
1346.33	493.9
1347.124	-652.96
1347.918	-272.04
1348.712	891.21
1349.507	403.79
1350.303	-530.08
1351.099	-489.12
1351.896	78.16
1352.693	-214.7
1353.49	-554.66
1354.289	-534.18
1355.087	553.29
1355.887	690.51
1356.686	-433.83
1357.487	-536.23
1358.288	39.25
1359.089	293.2
1359.891	-147.11
1360.693	-476.84
1361.496	-124.58
1362.3	131.41
1363.104	-652.96
1363.908	-667.3
1364.713	749.9
1365.519	829.77
1366.325	-648.86
1367.131	-806.56
1367.939	268.63
1368.746	768.33
1369.555	-855.71
1370.363	-517.79
1371.173	784.71
1371.982	1151.3
1372.793	-652.96
1373.604	-845.47
1374.415	604.49
1375.227	590.16
1376.039	-734.88
1376.852	-650.91
1377.666	993.61
1378.48	285.01
1379.295	-741.02
1380.11	-779.93
1380.925	-34.47
1381.742	995.65
1382.558	-579.23
1383.376	-550.56
1384.193	383.31
1385.012	82.26
1385.831	-644.77
1386.65	-566.95
1387.47	207.19
1388.29	158.03
1389.111	-493.22
1389.933	-786.08
1390.755	651.6
1391.578	256.34
1392.401	-816.8
1393.225	-544.42
1394.049	989.51
1394.873	207.19
1395.699	-640.67
1396.525	-487.08
1397.351	657.74
1398.178	80.21
1399.005	-603.81
1399.833	-931.48
1400.662	495.95
1401.491	911.69
1402.321	-591.52
1403.151	-478.88
1403.981	358.74
1404.813	538.96
1405.644	-429.73
1406.477	-736.93
1407.309	309.58
1408.143	1067.33
1408.977	-636.58
1409.811	-644.77
1410.646	850.25
1411.482	745.8
1412.318	-575.14
1413.155	-612
1413.992	610.64
1414.829	-95.91
1415.668	-620.19
1416.506	-288.42
1417.346	807.24
1418.186	424.27
1419.026	-640.67
1419.867	-845.47
1420.709	616.78
1421.551	633.16
1422.393	-816.8
1423.236	-353.96
1424.08	362.83
1424.924	401.74
1425.769	-667.3
1426.614	-581.28
1427.46	538.96
1428.307	207.19
1429.154	-747.17
1430.001	-689.82
1430.849	342.35
1431.698	242
1432.547	-816.8
1433.397	-865.95
1434.247	584.01
1435.098	899.4
1435.949	-587.43
1436.801	-554.66
1437.653	219.47
1438.506	612.68
1439.36	-882.33
1440.214	-728.74
1441.069	518.48
1441.924	289.1
1442.78	-546.47
1443.636	-767.65
1444.493	174.42
1445.35	407.89
1446.208	-517.79
1447.067	-620.19
1447.926	428.37
1448.785	833.86
1449.645	-587.43
1450.506	-585.38
1451.367	330.06
1452.229	51.54
1453.091	-687.78
1453.954	-351.91
1454.818	186.71
1455.682	371.02
1456.546	-534.18
1457.412	-816.8
1458.277	747.85
1459.143	239.95
1460.01	-380.58
1460.878	-716.45
1461.745	350.54
1462.614	178.51
1463.483	-845.47
1464.352	-403.11
1465.223	659.79
1466.093	649.55
1466.964	-716.45
1467.836	-763.55
1468.709	723.27
1469.581	315.73
1470.455	-515.75
1471.329	-657.06
1472.203	24.92
1473.079	102.74
1473.954	-233.13
1474.831	-749.22
1475.707	80.21
1476.585	174.42
1477.463	-632.48
1478.341	-544.42
1479.22	76.12
1480.1	342.35
1480.98	-896.67
1481.861	-790.17
1482.742	506.19
1483.624	651.6
1484.506	-437.92
1485.389	-571.04
1486.273	182.61
1487.157	166.23
1488.041	-667.3
1488.926	-851.61
1489.812	485.71
1490.699	244.05
1491.585	-675.49
1492.473	-538.27
1493.361	-235.18
1494.249	266.58
1495.139	-382.63
1496.028	-509.6
1496.919	-11.95
1497.809	442.7
1498.701	-708.26
1499.593	-708.26
1500.485	170.32
1501.378	747.85
1502.272	-349.86
1503.166	-566.95
1504.061	715.08
1504.956	356.69
1505.852	-538.27
1506.749	-769.69
1507.646	481.61
1508.543	354.64
1509.442	-741.02
1510.34	-95.91
1511.24	1044.81
1512.14	188.75
1513.04	-665.25
1513.941	-747.17
1514.843	1159.49
1515.745	10.58
1516.648	-562.85
1517.551	-796.32
1518.455	-194.22
1519.359	-226.98
1520.264	-657.06
1521.17	-845.47
1522.076	141.65
1522.983	395.6
1523.89	-822.94
1524.798	-489.12
1525.706	297.3
1526.615	1308.99
1527.525	-845.47
1528.435	-536.23
1529.346	608.59
1530.257	164.18
1531.169	-446.12
1532.081	-681.63
1532.994	1044.81
1533.908	268.63
1534.822	-564.9
1535.737	-540.32
1536.652	342.35
1537.568	246.1
1538.484	-579.23
1539.401	-947.87
1540.319	852.3
1541.237	-48.81
1542.156	-800.41
1543.075	-644.77
1543.995	1034.57
1544.916	1061.19
1545.837	-777.89
1546.758	-665.25
1547.68	614.73
1548.603	594.25
1549.527	-489.12
1550.451	-726.69
1551.375	487.76
1552.3	747.85
1553.226	-814.75
1554.152	-698.02
1555.079	731.47
1556.006	340.3
1556.934	-429.73
1557.863	-538.27
1558.792	876.87
1559.722	16.73
1560.652	-521.89
1561.583	-824.99
1562.514	-112.3
1563.446	110.93
1564.379	-923.29
1565.312	-493.22
1566.246	643.4
1567.18	192.85
1568.115	-513.7
1569.051	-755.36
1569.987	801.1
1570.924	887.11
1571.861	-818.85
1572.799	-513.7
1573.737	690.51
1574.676	325.97
1575.616	-464.55
1576.556	-695.97
1577.497	-95.91
1578.438	100.69
1579.38	-626.34
1580.323	-480.93
1581.266	424.27
1582.21	661.84
1583.154	-679.58
1584.099	-732.83
1585.044	526.67
1585.99	788.81
1586.937	-358.05
1587.884	-493.22
1588.832	299.34
1589.78	846.15
1590.729	-542.37
1591.679	-378.53
1592.629	305.49
1593.58	504.14
1594.531	-480.93
1595.483	-446.12
1596.435	215.38
1597.388	-9.9
1598.342	-274.09
1599.296	-390.82
1600.251	489.81
1601.207	723.27
1602.163	-575.14
1603.119	-698.02
1604.077	715.08
1605.034	872.78
1605.993	-517.79
1606.952	35.16
1607.911	244.05
1608.872	387.41
1609.832	-689.82
1610.794	-775.84
1611.756	604.49
1612.718	467.28
1613.681	-300.71
1614.645	-661.15
1615.609	725.32
1616.574	260.43
1617.54	-163.5
1618.506	-620.19
1619.472	842.06
1620.44	674.12
1621.408	-169.64
1622.376	-470.69
1623.345	428.37
1624.315	829.77
1625.285	-558.75
1626.256	-554.66
1627.227	579.92
1628.199	-54.95
1629.172	-366.25
1630.145	-347.81
1631.119	454.99
1632.094	1079.62
1633.069	-546.47
1634.044	-341.67
1635.02	207.19
1635.997	635.21
1636.975	-546.47
1637.953	-718.5
1638.931	1022.28
1639.911	88.4
1640.89	-718.5
1641.871	-509.6
1642.852	567.63
1643.833	469.33
1644.816	-700.06
1645.798	-771.74
1646.782	897.35
1647.766	55.64
1648.75	-659.1
1649.736	-634.53
1650.721	-59.05
1651.708	407.89
1652.695	-636.58
1653.682	-427.68
1654.671	395.6
1655.66	565.58
1656.649	-562.85
1657.639	-618.15
1658.63	-52.91
1659.621	162.13
1660.613	-841.37
1661.605	-808.61
1662.598	211.28
1663.592	166.23
1664.586	-886.43
1665.581	-779.93
1666.576	213.33
1667.572	313.68
1668.569	-614.05
1669.566	-669.34
1670.564	534.86
1671.563	774.47
1672.562	-685.73
1673.562	-308.9
1674.562	418.13
1675.563	371.02
1676.564	-366.25
1677.566	-612
1678.569	1028.42
1679.572	-347.81
1680.576	-448.16
1681.581	-726.69
1682.586	180.56
1683.592	569.68
1684.598	-448.16
1685.605	-351.91
1686.613	600.4
1687.621	305.49
1688.63	-411.3
1689.639	-431.78
1690.649	272.72
1691.66	381.26
1692.671	-521.89
1693.683	-775.84
1694.696	-22.19
1695.709	397.65
1696.722	-618.15
1697.737	-599.71
1698.752	55.64
1699.767	434.51
1700.783	-591.52
1701.8	-435.88
1702.818	371.02
1703.836	-67.24
1704.854	-757.41
1705.873	-657.06
1706.893	221.52
1707.914	309.58
1708.935	-566.95
1709.956	-562.85
1710.979	350.54
1712.002	321.87
1713.025	-657.06
1714.049	-423.59
1715.074	385.36
1716.099	538.96
1717.125	-646.82
1718.152	-718.5
1719.179	86.36
1720.207	577.87
1721.235	-30.38
1722.265	-165.54
1723.294	319.82
1724.325	225.62
1725.355	-374.44
1726.387	-505.51
1727.419	295.25
1728.452	514.38
1729.485	-392.87
1730.519	-638.62
1731.554	-40.62
1732.589	366.93
1733.625	-765.6
1734.662	-648.86
1735.699	-132.78
1736.736	549.2
1737.775	-642.72
1738.814	-585.38
1739.853	178.51
1740.894	166.23
1741.934	-497.32
1742.976	-757.41
1744.018	559.44
1745.061	352.59
1746.104	-655.01
1747.148	-749.22
1748.193	319.82
1749.238	375.12
1750.284	-460.45
1751.33	-755.36
1752.377	452.94
1753.425	1014.09
1754.473	-513.7
1755.522	-505.51
1756.572	823.62
1757.622	440.65
1758.673	-786.08
1759.724	-540.32
1760.776	684.36
1761.829	827.72
1762.882	-272.04
1763.936	-724.64
1764.991	20.82
1766.046	940.36
1767.102	-413.35
1768.158	-786.08
1769.215	377.17
1770.273	430.41
1771.331	-456.36
1772.39	-698.02
1773.45	430.41
1774.51	432.46
1775.571	-743.07
1776.632	-214.7
1777.694	149.84
1778.757	446.8
1779.82	-341.67
1780.884	-513.7
1781.949	84.31
1783.014	465.23
1784.08	-792.22
1785.147	-597.67
1786.214	201.04
1787.282	69.97
1788.35	-409.25
1789.419	-429.73
1790.489	766.28
1791.559	387.41
1792.63	-677.54
1793.702	-388.77
1794.774	190.8
1795.847	624.97
1796.92	-415.4
1797.994	-497.32
1799.069	469.33
1800.144	1186.12
1801.22	-575.14
1802.297	-388.77
1803.374	18.77
1804.452	479.57
1805.531	-634.53
1806.61	-390.82
1807.69	514.38
1808.77	-61.1
1809.851	-485.03
1810.933	-822.94
1812.015	760.14
1813.098	182.61
1814.182	-546.47
1815.266	-472.74
1816.351	301.39
1817.437	352.59
1818.523	-587.43
1819.61	-474.79
1820.697	305.49
1821.785	1235.27
1822.874	-419.49
1823.963	-612
1825.053	176.47
1826.144	534.86
1827.235	-546.47
1828.327	-593.57
1829.42	366.93
1830.513	-26.28
1831.607	-673.44
1832.701	-583.33
1833.796	227.67
1834.892	764.23
1835.989	-767.65
1837.086	-706.21
1838.183	420.17
1839.282	317.78
1840.381	-620.19
1841.48	-583.33
1842.581	395.6
1843.682	913.74
1844.783	-296.61
1845.885	-317.09
1846.988	684.36
1848.092	403.79
1849.196	-446.12
1850.301	-415.4
1851.406	20.82
1852.512	1139.01
1853.619	-579.23
1854.726	-667.3
1855.834	80.21
1856.943	723.27
1858.052	-667.3
1859.162	-556.71
1860.273	280.91
1861.384	854.34
1862.496	-470.69
1863.608	-642.72
1864.721	416.08
1865.835	174.42
1866.95	-681.63
1868.065	-468.64
1869.181	217.43
1870.297	538.96
1871.414	-427.68
1872.532	-837.28
1873.65	145.75
1874.769	184.66
1875.889	-681.63
1877.009	-239.27
1878.13	340.3
1879.252	737.61
1880.374	-505.51
1881.497	-603.81
1882.62	334.16
1883.745	92.5
1884.87	-794.27
1885.995	-724.64
1887.121	272.72
1888.248	88.4
1889.376	-734.88
1890.504	-693.92
1891.632	430.41
1892.762	164.18
1893.892	-698.02
1895.023	-374.44
1896.154	59.73
1897.286	280.91
1898.419	-624.29
1899.552	-507.55
1900.686	575.82
1901.821	547.15
1902.956	-648.86
1904.092	-474.79
1905.229	809.29
1906.366	536.91
1907.504	-644.77
1908.643	-669.34
1909.782	600.4
